time(s),ppg
0.0,-6.699016E7
0.008339000000000318,-6.7033856E7
0.01667799999999975,-6.7060408E7
0.025017000000000955,-6.7162216E7
0.033355000000001134,-6.7186256E7
0.041694000000000564,-6.7223056E7
0.05003300000000088,-6.72676E7
0.05837200000000031,-6.7353568E7
0.06671100000000063,-6.744872E7
0.07505000000000006,-6.7506816E7
0.08338900000000038,-6.7543248E7
0.09172700000000056,-6.7378352E7
0.10006600000000088,-6.7411888E7
0.1084050000000012,-6.7264448E7
0.11674400000000063,-6.7187224E7
0.12508300000000094,-6.7083332E7
0.13342200000000037,-6.68118E7
0.1417610000000007,-6.6563192E7
0.150100000000001,-6.6244296E7
0.15843900000000044,-6.593524E7
0.16677700000000062,-6.5463184E7
0.17511600000000005,-6.5132696E7
0.18345500000000037,-6.48554E7
0.1917940000000007,-6.4583764E7
0.200133000000001,-6.4383512E7
0.20847200000000132,-6.4192332E7
0.21681100000000075,-6.403304E7
0.22515000000000107,-6.3847848E7
0.23348800000000036,-6.373136E7
0.24182700000000068,-6.3886964E7
0.2501660000000001,-6.3824948E7
0.25850500000000043,-6.39768E7
0.26684399999999986,-6.3897628E7
0.2751830000000002,-6.3913304E7
0.2835220000000005,-6.3904176E7
0.2918610000000008,-6.3882592E7
0.30020000000000113,-6.3901964E7
0.3085380000000004,-6.3917072E7
0.31687700000000074,-6.3962824E7
0.32521600000000017,-6.4024904E7
0.3335550000000005,-6.40962E7
0.3418940000000008,-6.4175496E7
0.35023300000000024,-6.4170816E7
0.35857200000000056,-6.4296564E7
0.36691000000000074,-6.435684E7
0.37524900000000105,-6.4416708E7
0.3835880000000005,-6.4509784E7
0.3919270000000008,-6.4602584E7
0.4002660000000011,-6.4582216E7
0.40860500000000055,-6.4640232E7
0.41694400000000087,-6.468706E7
0.4252830000000003,-6.467992E7
0.4336220000000006,-6.468388E7
0.44196100000000005,-6.4741148E7
0.4502990000000002,-6.4735168E7
0.45863800000000055,-6.4855972E7
0.46697700000000086,-6.4890532E7
0.4753160000000012,-6.4929348E7
0.4836550000000006,-6.4950216E7
0.49199400000000093,-6.5007064E7
0.5003330000000004,-6.5084516E7
0.5086710000000005,-6.5128096E7
0.517011000000001,-6.5186504E7
0.5253490000000003,-6.5274396E7
0.5336880000000006,-6.5379472E7
0.542027,-6.5472776E7
0.5503660000000004,-6.5574756E7
0.5587049999999998,-6.5589208E7
0.567044000000001,-6.5693536E7
0.5753830000000013,-6.5732668E7
0.5837220000000007,-6.5800388E7
0.5920600000000009,-6.597904E7
0.6003990000000003,-6.603252E7
0.6087380000000007,-6.6199696E7
0.6170770000000001,-6.6320928E7
0.6254160000000004,-6.6389056E7
0.6337550000000007,-6.6533504E7
0.6420940000000002,-6.6620584E7
0.6504330000000005,-6.669636E7
0.6587710000000007,-6.6761544E7
0.667110000000001,-6.6796632E7
0.6754490000000004,-6.6803592E7
0.6837880000000007,-6.69345E7
0.692127000000001,-6.6975832E7
0.7004660000000005,-6.702032E7
0.7088050000000008,-6.7069692E7
0.7171440000000002,-6.712384E7
0.7254820000000004,-6.6972268E7
0.7338209999999998,-6.7059656E7
0.742160000000001,-6.699756E7
0.7504990000000014,-6.708824E7
0.7588380000000008,-6.7141784E7
0.7671770000000011,-6.7175184E7
0.7755160000000005,-6.7219416E7
0.7838550000000009,-6.7295392E7
0.7921940000000003,-6.7324648E7
0.8005320000000005,-6.7390144E7
0.8088709999999999,-6.7423184E7
0.8172100000000002,-6.738708E7
0.8255490000000005,-6.7298208E7
0.833888,-6.7025416E7
0.8422270000000012,-6.6729328E7
0.8505660000000006,-6.6521044E7
0.8589040000000008,-6.6206988E7
0.8672430000000002,-6.5848284E7
0.8755820000000005,-6.5515132E7
0.8839210000000008,-6.5193484E7
0.8922600000000003,-6.4932564E7
0.9005990000000006,-6.4682996E7
0.908938,-6.4510656E7
0.9172770000000003,-6.4374292E7
0.9256160000000007,-6.4185216E7
0.9339550000000001,-6.4097976E7
0.9422930000000012,-6.4059316E7
0.9506320000000006,-6.3980576E7
0.9589710000000009,-6.3918176E7
0.9673100000000003,-6.3922936E7
0.9756490000000007,-6.4100856E7
0.9839880000000001,-6.4101144E7
0.9923270000000004,-6.4327872E7
1.0006660000000007,-6.4279588E7
1.009004,-6.4320328E7
1.0173430000000012,-6.4339064E7
1.0256820000000006,-6.4350132E7
1.034021000000001,-6.4361488E7
1.0423600000000004,-6.4453576E7
1.0506990000000007,-6.4551688E7
1.059038000000001,-6.4659208E7
1.0673760000000003,-6.4690784E7
1.0757150000000006,-6.4828272E7
1.084054,-6.488416E7
1.0923930000000004,-6.497512E7
1.1007319999999998,-6.4999544E7
1.1090710000000001,-6.5048572E7
1.1174100000000013,-6.5089472E7
1.1257490000000008,-6.5156952E7
1.134087000000001,-6.5187056E7
1.1424260000000004,-6.5222188E7
1.1507650000000007,-6.5237544E7
1.1591040000000001,-6.52526E7
1.1674430000000005,-6.524388E7
1.1757820000000008,-6.526202E7
1.1841210000000002,-6.53157E7
1.1924600000000005,-6.5391828E7
1.2007980000000007,-6.5493808E7
1.2091380000000003,-6.5571308E7
1.2174760000000004,-6.5690368E7
1.2258150000000008,-6.5744244E7
1.234154000000001,-6.576932E7
1.2424930000000005,-6.587404E7
1.2508320000000008,-6.5894056E7
1.2591710000000003,-6.5893488E7
1.2675100000000006,-6.5924116E7
1.275849,-6.6048004E7
1.2841870000000002,-6.6146112E7
1.2925260000000014,-6.6244808E7
1.3008650000000008,-6.6289152E7
1.3092040000000011,-6.638034E7
1.3175430000000006,-6.6544428E7
1.325882000000001,-6.6596512E7
1.3342210000000003,-6.6727376E7
1.3425590000000005,-6.6824344E7
1.3508980000000008,-6.6906544E7
1.3592370000000003,-6.6964932E7
1.3675760000000006,-6.7037912E7
1.375915,-6.6889216E7
1.3842540000000003,-6.6933344E7
1.3925930000000006,-6.6826856E7
1.400932000000001,-6.6928976E7
1.4092700000000002,-6.7018872E7
1.4176090000000006,-6.7084168E7
1.4259480000000009,-6.7134064E7
1.4342870000000003,-6.7182912E7
1.4426260000000006,-6.7178768E7
1.450965,-6.7290304E7
1.4593040000000004,-6.734232E7
1.4676430000000007,-6.7399616E7
1.4759820000000001,-6.7499512E7
1.4843200000000012,-6.7531408E7
1.4926590000000006,-6.7620808E7
1.500998000000001,-6.7716472E7
1.5093370000000004,-6.768224E7
1.5176760000000007,-6.7705528E7
1.526015000000001,-6.7542704E7
1.5343540000000004,-6.7265376E7
1.5426930000000008,-6.6930944E7
1.551031,-6.6683552E7
1.5593710000000005,-6.6293316E7
1.5677090000000007,-6.5886632E7
1.576048000000001,-6.553948E7
1.5843870000000013,-6.5236688E7
1.5927260000000008,-6.494536E7
1.601065000000001,-6.4804596E7
1.6094040000000005,-6.466448E7
1.6177430000000008,-6.4579664E7
1.6260820000000002,-6.4483168E7
1.6344200000000004,-6.4391656E7
1.6427589999999999,-6.4334148E7
1.6510980000000002,-6.4332448E7
1.6594370000000005,-6.4348884E7
1.6677760000000008,-6.4343528E7
1.6761150000000011,-6.42902E7
1.6844540000000006,-6.4326316E7
1.6927930000000009,-6.4325896E7
1.7011310000000002,-6.4384752E7
1.7094700000000005,-6.4375104E7
1.7178090000000008,-6.4437436E7
1.7261480000000002,-6.4503144E7
1.7344870000000006,-6.4581688E7
1.742826,-6.4696512E7
1.7511650000000003,-6.4760776E7
1.7595039999999997,-6.4886112E7
1.767843000000001,-6.4982856E7
1.7761810000000011,-6.5079952E7
1.7845200000000006,-6.5199244E7
1.7928590000000009,-6.522264E7
1.8011980000000003,-6.5359344E7
1.8095370000000006,-6.544446E7
1.817876,-6.5473288E7
1.8262150000000004,-6.5435568E7
1.8345530000000005,-6.5491276E7
1.8428920000000009,-6.5505544E7
1.8512310000000012,-6.5538616E7
1.8595700000000006,-6.5577176E7
1.867909000000001,-6.5630736E7
1.8762480000000004,-6.570132E7
1.8845870000000007,-6.5788748E7
1.892926000000001,-6.5860872E7
1.9012650000000004,-6.588164E7
1.9096030000000006,-6.5955928E7
1.917942,-6.6092148E7
1.9262810000000004,-6.6197768E7
1.9346199999999998,-6.6265972E7
1.942959000000001,-6.636892E7
1.9512980000000013,-6.6454988E7
1.9596370000000007,-6.6570688E7
1.967976000000001,-6.6636832E7
1.9763140000000003,-6.6726528E7
1.9846530000000007,-6.6770276E7
1.992992,-6.688236E7
2.0013310000000004,-6.6972608E7
2.0096700000000007,-6.70396E7
2.018009,-6.7106792E7
2.0263480000000005,-6.7192592E7
2.0346860000000007,-6.7240032E7
2.043025000000001,-6.7255424E7
2.0513640000000004,-6.73772E7
2.0597030000000007,-6.7443904E7
2.068042000000001,-6.7543664E7
2.0763810000000005,-6.759384E7
2.084720000000001,-6.7640664E7
2.0930590000000002,-6.770368E7
2.1013980000000005,-6.78344E7
2.1097360000000007,-6.7873088E7
2.118075000000001,-6.796292E7
2.1264140000000014,-6.8022992E7
2.134753000000001,-6.807932E7
2.143092000000001,-6.809832E7
2.1514310000000005,-6.8159632E7
2.159770000000001,-6.816944E7
2.1681090000000003,-6.811888E7
2.1764470000000005,-6.7995712E7
2.184786,-6.7694336E7
2.193125,-6.7413632E7
2.2014640000000005,-6.7095236E7
2.209803,-6.6715684E7
2.218142000000001,-6.63095E7
2.2264810000000006,-6.5944436E7
2.234820000000001,-6.5619384E7
2.2431590000000012,-6.5356188E7
2.2514970000000005,-6.5178392E7
2.259836000000001,-6.5002752E7
2.2681750000000003,-6.4975816E7
2.2765140000000006,-6.4873784E7
2.284853,-6.4799008E7
2.2931920000000003,-6.4775104E7
2.3015310000000007,-6.4737048E7
2.30987,-6.475408E7
2.318208000000001,-6.4769456E7
2.3265470000000006,-6.484892E7
2.334886000000001,-6.4830792E7
2.3432250000000003,-6.4831544E7
2.3515640000000007,-6.4839416E7
2.359903,-6.4819096E7
2.3682420000000004,-6.4851288E7
2.3765810000000007,-6.4893052E7
2.384919000000001,-6.5014952E7
2.3932590000000005,-6.5040284E7
2.4015970000000006,-6.5175128E7
2.409936000000001,-6.528334E7
2.4182750000000004,-6.5435488E7
2.4266140000000007,-6.5560624E7
2.434953000000001,-6.5674424E7
2.4432920000000005,-6.5742012E7
2.451631000000001,-6.5795792E7
2.459969,-6.5794264E7
2.4683080000000004,-6.5871952E7
2.476647,-6.5857676E7
2.484986000000001,-6.5858896E7
2.4933250000000013,-6.5887768E7
2.5016640000000008,-6.590426E7
2.510003000000001,-6.590336E7
2.5183420000000005,-6.5932176E7
2.5266800000000007,-6.5950388E7
2.535019,-6.5976076E7
2.5433580000000005,-6.6095968E7
2.5516970000000008,-6.6197196E7
2.560036,-6.6315012E7
2.5683750000000005,-6.6370672E7
2.576714,-6.647772E7
2.5850530000000003,-6.657476E7
2.5933920000000006,-6.6713184E7
2.6017300000000008,-6.6796588E7
2.610069000000001,-6.6940896E7
2.6184080000000005,-6.6948088E7
2.626747000000001,-6.7039532E7
2.6350860000000003,-6.7122448E7
2.6434250000000006,-6.7219496E7
2.651764,-6.7269696E7
2.6601030000000003,-6.730832E7
2.6684410000000014,-6.737328E7
2.676780000000001,-6.7400824E7
2.685119000000001,-6.7500112E7
2.6934580000000006,-6.7618784E7
2.701797000000001,-6.774152E7
2.7101360000000003,-6.7808448E7
2.7184750000000006,-6.7880472E7
2.726814000000001,-6.7946784E7
2.7351530000000004,-6.8035648E7
2.7434910000000006,-6.8039848E7
2.75183,-6.813396E7
2.760169000000001,-6.8232496E7
2.7685080000000006,-6.824228E7
2.776847,-6.8313264E7
2.7851860000000013,-6.839048E7
2.7935250000000007,-6.8404592E7
2.801864,-6.8433608E7
2.8102020000000003,-6.8335616E7
2.8185409999999997,-6.80884E7
2.826880000000001,-6.7721024E7
2.8352190000000004,-6.7401824E7
2.843558,-6.71224E7
2.851897000000001,-6.6712112E7
2.8602360000000004,-6.6313888E7
2.8685750000000017,-6.59266E7
2.876914000000001,-6.5672928E7
2.8852520000000013,-6.5423892E7
2.8935910000000007,-6.52436E7
2.90193,-6.509014E7
2.9102690000000013,-6.5046592E7
2.9186080000000008,-6.4966692E7
2.926947,-6.4869984E7
2.9352859999999996,-6.4904544E7
2.943625000000001,-6.4834404E7
2.9519629999999992,-6.4844276E7
2.9603020000000004,-6.4852972E7
2.968641,-6.4884776E7
2.9769799999999993,-6.4906456E7
2.9853190000000005,-6.4905044E7
2.993658,-6.49622E7
3.001997000000001,-6.5017612E7
3.0103360000000006,-6.5064832E7
3.0186740000000007,-6.51631E7
3.027013000000002,-6.5232092E7
3.0353520000000014,-6.534212E7
3.043691000000001,-6.5465956E7
3.0520300000000002,-6.5566892E7
3.0603690000000014,-6.5683808E7
3.068708000000001,-6.5782668E7
3.0770470000000003,-6.5916936E7
3.0853850000000005,-6.6057832E7
3.093724,-6.616276E7
3.102063000000001,-6.620924E7
3.1104020000000006,-6.622964E7
3.118741,-6.6291064E7
3.1270799999999994,-6.6239432E7
3.1354190000000006,-6.6220976E7
3.143758,-6.6218016E7
3.1520969999999995,-6.6223752E7
3.1604349999999997,-6.6260096E7
3.168773999999999,-6.6317764E7
3.177113000000002,-6.638704E7
3.1854520000000015,-6.6532896E7
3.193791000000001,-6.6597096E7
3.202130000000002,-6.6736736E7
3.2104690000000016,-6.6834972E7
3.218808000000001,-6.6949928E7
3.227146000000001,-6.698888E7
3.2354850000000006,-6.7130304E7
3.243824,-6.722176E7
3.2521630000000012,-6.7313896E7
3.2605020000000007,-6.734872E7
3.268841,-6.7501864E7
3.2771800000000013,-6.754004E7
3.2855179999999997,-6.7627688E7
3.293857000000001,-6.7742344E7
3.3021960000000004,-6.781088E7
3.310535,-6.7877744E7
3.318873999999999,-6.7952208E7
3.3272130000000004,-6.7969728E7
3.335552,-6.8104832E7
3.3438909999999993,-6.8166656E7
3.3522300000000005,-6.8243136E7
3.360569,-6.8292E7
3.368907000000002,-6.8337184E7
3.3772460000000013,-6.839168E7
3.3855850000000007,-6.8450816E7
3.393924000000002,-6.8518928E7
3.4022630000000014,-6.859564E7
3.410602000000001,-6.867784E7
3.4189410000000002,-6.8785376E7
3.4272800000000014,-6.886504E7
3.435619000000001,-6.8888464E7
3.443957000000001,-6.8915376E7
3.4522960000000005,-6.8965568E7
3.460635,-6.8925008E7
3.468974000000001,-6.8745568E7
3.4773130000000005,-6.8447104E7
3.485652,-6.8092072E7
3.4939909999999994,-6.7718464E7
3.5023289999999996,-6.738708E7
3.510668000000001,-6.6967384E7
3.519007,-6.6612128E7
3.5273459999999996,-6.6286648E7
3.535684999999999,-6.600088E7
3.5440240000000003,-6.5820376E7
3.5523630000000015,-6.5704544E7
3.560702000000001,-6.5587084E7
3.569041000000002,-6.5553228E7
3.5773790000000005,-6.5468972E7
3.5857180000000017,-6.5440488E7
3.594057000000001,-6.539476E7
3.6023960000000006,-6.544298E7
3.610735,-6.5452776E7
3.6190740000000012,-6.549004E7
3.6274130000000007,-6.5525648E7
3.635752,-6.5540268E7
3.6440910000000013,-6.5549888E7
3.6524289999999997,-6.5593828E7
3.660768000000001,-6.5630588E7
3.6691070000000003,-6.565622E7
3.6774459999999998,-6.5766736E7
3.685785000000001,-6.5865532E7
3.6941240000000004,-6.6028776E7
3.702463,-6.6161952E7
3.7108019999999993,-6.6264876E7
3.7191400000000012,-6.640232E7
3.7274790000000007,-6.6528532E7
3.735818000000002,-6.6615672E7
3.7441570000000013,-6.6660696E7
3.7524960000000007,-6.6718584E7
3.760835000000002,-6.6758296E7
3.7691740000000014,-6.6761056E7
3.777513000000001,-6.6740176E7
3.785851000000001,-6.6712448E7
3.7941900000000004,-6.6708636E7
3.8025290000000016,-6.676772E7
3.810868000000001,-6.6754304E7
3.8192070000000005,-6.6804692E7
3.827546,-6.6877736E7
3.835885000000001,-6.6950032E7
3.8442229999999995,-6.7058472E7
3.852563,-6.7160672E7
3.860901,-6.7228704E7
3.8692399999999996,-6.7305432E7
3.8775790000000008,-6.7377376E7
3.885918,-6.7530816E7
3.8942569999999996,-6.7613224E7
3.902595999999999,-6.7738688E7
3.910934000000001,-6.780764E7
3.9192730000000022,-6.784768E7
3.9276120000000017,-6.788296E7
3.935951000000001,-6.800472E7
3.9442900000000005,-6.8056136E7
3.9526290000000017,-6.8086552E7
3.960968000000001,-6.8158496E7
3.9693070000000006,-6.8254848E7
3.977646000000002,-6.8338768E7
3.985984,-6.8395696E7
3.9943230000000014,-6.8496832E7
4.002662000000001,-6.8590064E7
4.011001,-6.8631376E7
4.01934,-6.8645768E7
4.027679000000001,-6.8675256E7
4.036018,-6.87844E7
4.044357,-6.8818864E7
4.052695,-6.8904312E7
4.061033999999999,-6.8993224E7
4.069373000000001,-6.9048848E7
4.077712,-6.9144048E7
4.086050999999999,-6.9179416E7
4.094390000000002,-6.925132E7
4.102729000000002,-6.9314384E7
4.111068000000001,-6.911576E7
4.119407000000001,-6.915448E7
4.127745000000001,-6.896844E7
4.136084,-6.900608E7
4.1444230000000015,-6.8932488E7
4.152762000000001,-6.8758944E7
4.161101,-6.8364272E7
4.169440000000002,-6.7967672E7
4.177779000000001,-6.7576912E7
4.1861180000000004,-6.720112E7
4.194456000000001,-6.6766692E7
4.202795,-6.6361308E7
4.2111339999999995,-6.6054228E7
4.219473000000001,-6.5769696E7
4.227812,-6.5580768E7
4.2361509999999996,-6.5463336E7
4.244490000000001,-6.5341348E7
4.252829,-6.525052E7
4.261168,-6.5235836E7
4.269506999999999,-6.5170668E7
4.277845000000001,-6.537148E7
4.286184000000002,-6.5363992E7
4.294523000000002,-6.5638648E7
4.302862000000001,-6.56184E7
4.3112010000000005,-6.5630488E7
4.319540000000002,-6.5622556E7
4.327879000000001,-6.5633068E7
4.336217000000001,-6.561972E7
4.344556000000001,-6.5634236E7
4.352895,-6.564288E7
4.361234000000001,-6.571168E7
4.369573000000001,-6.5841312E7
4.377912,-6.597854E7
4.386251,-6.6100556E7
4.394590000000001,-6.6222308E7
4.402929,-6.6349264E7
4.4112670000000005,-6.6447516E7
4.419606,-6.6524544E7
4.427944999999999,-6.6568448E7
4.436284000000001,-6.6612816E7
4.444623,-6.6619572E7
4.452961999999999,-6.669612E7
4.461301000000001,-6.6669016E7
4.469639000000001,-6.6651364E7
4.477978000000002,-6.663692E7
4.486317000000001,-6.670816E7
4.494656000000001,-6.6700664E7
4.502995,-6.6733356E7
4.5113340000000015,-6.6800428E7
4.519673000000001,-6.6868044E7
4.528012,-6.6947772E7
4.536351000000002,-6.7048856E7
4.544690000000001,-6.7145608E7
4.553028000000001,-6.722536E7
4.561367000000001,-6.7327376E7
4.569706,-6.7421776E7
4.578045000000001,-6.7480576E7
4.586384000000001,-6.7529984E7
4.594723,-6.7572112E7
4.6030619999999995,-6.7627008E7
4.611401000000001,-6.7694232E7
4.619738999999999,-6.7778664E7
4.628078,-6.782656E7
4.636417,-6.7927696E7
4.644756000000001,-6.7985392E7
4.653095000000002,-6.8072704E7
4.661434000000002,-6.8097312E7
4.669773000000001,-6.8169112E7
4.6781120000000005,-6.8224832E7
4.686450000000001,-6.8240616E7
4.694789000000002,-6.8308896E7
4.703128000000001,-6.8380736E7
4.711467000000001,-6.83892E7
4.719806,-6.84624E7
4.728145000000001,-6.8495664E7
4.736484000000001,-6.8607552E7
4.744823,-6.867512E7
4.753161,-6.877368E7
4.7615,-6.8537904E7
4.769839000000001,-6.8643056E7
4.7781780000000005,-6.8489456E7
4.786517,-6.8534032E7
4.794855999999999,-6.856836E7
4.8031950000000005,-6.8626784E7
4.811534,-6.8653912E7
4.819872000000002,-6.8739728E7
4.828211000000001,-6.877312E7
4.836550000000001,-6.8887512E7
4.844889000000002,-6.8958832E7
4.853228000000001,-6.8993232E7
4.861567000000001,-6.9041648E7
4.869906000000002,-6.9125552E7
4.8782450000000015,-6.9108928E7
4.886583000000002,-6.9184592E7
4.894923,-6.922064E7
4.9032610000000005,-6.9249952E7
4.9116,-6.9373664E7
4.919939000000001,-6.940152E7
4.928278000000001,-6.949312E7
4.936617,-6.9584664E7
4.944956000000001,-6.9611648E7
4.953294,-6.9652704E7
4.961633000000001,-6.9701552E7
4.969972,-6.9793968E7
4.978311,-6.9816504E7
4.986649999999999,-6.9865152E7
4.994989,-6.995072E7
5.003328,-6.9968856E7
5.011666999999999,-7.0031768E7
5.020006000000002,-7.0066424E7
5.028345000000002,-7.0101656E7
5.036683000000002,-7.007272E7
5.045022000000001,-6.994712E7
5.053361000000001,-6.97716E7
5.061700000000002,-6.940448E7
5.070039000000001,-6.8982072E7
5.078378000000001,-6.8598944E7
5.086717,-6.81854E7
5.095055,-6.7783952E7
5.103395000000001,-6.7298792E7
5.111733000000001,-6.6993104E7
5.120072,-6.6673996E7
5.128411,-6.645482E7
5.136750000000001,-6.6210544E7
5.1450890000000005,-6.6014592E7
5.153428,-6.5872952E7
5.161766999999999,-6.5785072E7
5.1701049999999995,-6.5712112E7
5.178444000000001,-6.5636024E7
5.186783,-6.5511712E7
5.195122000000001,-6.54799E7
5.203461000000001,-6.5449364E7
5.211800000000002,-6.5450256E7
5.220139000000001,-6.5422424E7
5.228478000000001,-6.5391856E7
5.236817000000002,-6.5324384E7
5.2451550000000005,-6.555862E7
5.253494000000002,-6.557994E7
5.261833000000001,-6.5724808E7
5.2701720000000005,-6.5792352E7
5.278511,-6.5869388E7
5.286850000000001,-6.592256E7
5.295189000000001,-6.603484E7
5.303527000000001,-6.6120496E7
5.311867000000001,-6.61674E7
5.320205,-6.6248064E7
5.328544000000001,-6.628734E7
5.336883,-6.6311976E7
5.345222,-6.632404E7
5.353561000000001,-6.637104E7
5.3619,-6.6344208E7
5.370239,-6.6409456E7
5.378577999999999,-6.6345704E7
5.386916000000001,-6.640762E7
5.395255000000001,-6.6385328E7
5.403594000000002,-6.6408376E7
5.411933000000001,-6.6451504E7
5.420272000000001,-6.649936E7
5.428611000000002,-6.651584E7
5.436950000000001,-6.6556032E7
5.445289000000001,-6.6663704E7
5.453627000000001,-6.6692744E7
5.461966,-6.6775196E7
5.470305,-6.678352E7
5.478644000000001,-6.6884312E7
5.486983,-6.694652E7
5.495322,-6.7013088E7
5.503661000000001,-6.713192E7
5.511998999999999,-6.7201336E7
5.520339,-6.7270656E7
5.528677,-6.7348432E7
5.5370159999999995,-6.7435752E7
5.545355000000001,-6.7565888E7
5.553694,-6.7612976E7
5.562033,-6.768224E7
5.570372000000001,-6.7808848E7
5.578711000000002,-6.78804E7
5.587050000000001,-6.7945856E7
5.595388000000002,-6.8037376E7
5.603727000000001,-6.8148648E7
5.612066,-6.822664E7
5.620405000000002,-6.8256512E7
5.628744000000001,-6.8368896E7
5.6370830000000005,-6.8416968E7
5.645422,-6.8461488E7
5.653761000000001,-6.8567296E7
5.662099000000001,-6.8652376E7
5.670438000000001,-6.8747984E7
5.678777,-6.8782736E7
5.687116,-6.8855696E7
5.695455000000001,-6.8646736E7
5.703794,-6.8708984E7
5.712133,-6.853544E7
5.720471,-6.8593912E7
5.728809999999999,-6.8637768E7
5.7371490000000005,-6.8664576E7
5.745488000000002,-6.872084E7
5.753827000000001,-6.881968E7
5.762166000000001,-6.8852E7
5.770505000000002,-6.8912176E7
5.778844000000001,-6.8984304E7
5.787183000000001,-6.906692E7
5.795521000000001,-6.9133264E7
5.80386,-6.9134432E7
5.8121990000000014,-6.9194176E7
5.820538000000001,-6.9237856E7
5.828877,-6.9333368E7
5.8372160000000015,-6.9399728E7
5.845555000000001,-6.946268E7
5.853894,-6.9565696E7
5.862233,-6.9587776E7
5.870571,-6.96758E7
5.878909999999999,-6.9741856E7
5.887249000000001,-6.9751296E7
5.895588,-6.97588E7
5.9039269999999995,-6.98496E7
5.912266000000001,-6.9920672E7
5.920605,-6.9947496E7
5.928943000000002,-7.0046904E7
5.9372820000000015,-7.0134192E7
5.945621000000001,-7.0182944E7
5.953960000000002,-7.0215104E7
5.962299000000002,-7.020104E7
5.970638000000001,-7.0180016E7
5.978977,-7.0053272E7
5.987316000000002,-6.980352E7
5.995655000000001,-6.9442752E7
6.0039940000000005,-6.9050624E7
6.012332000000001,-6.8675008E7
6.020671,-6.829876E7
6.029010000000001,-6.7880768E7
6.037349000000001,-6.7486856E7
6.045688,-6.7098772E7
6.054027,-6.6909368E7
6.062366000000001,-6.6674744E7
6.070703999999999,-6.6528952E7
6.079043,-6.6379656E7
6.087382,-6.6290256E7
6.095720999999999,-6.6195976E7
6.1040600000000005,-6.6124764E7
6.112399,-6.60804E7
6.120738000000001,-6.6001704E7
6.129077000000002,-6.5901892E7
6.137415000000001,-6.5842524E7
6.145754000000002,-6.5762784E7
6.154093000000001,-6.5794112E7
6.162432000000001,-6.5757228E7
6.170771,-6.5716024E7
6.179110000000001,-6.5679048E7
6.187449000000001,-6.56918E7
6.195788,-6.5658208E7
6.2041270000000015,-6.5724392E7
6.212465,-6.5758512E7
6.220804000000001,-6.5886508E7
6.2291430000000005,-6.5962448E7
6.237482,-6.6059088E7
6.245820999999999,-6.6141048E7
6.254160000000001,-6.6181768E7
6.262499,-6.6265968E7
6.2708379999999995,-6.627788E7
6.279176,-6.638384E7
6.287515000000001,-6.6385848E7
6.295854000000002,-6.6390264E7
6.3041930000000015,-6.6450868E7
6.312532000000001,-6.646686E7
6.320871000000002,-6.649526E7
6.329210000000002,-6.6539432E7
6.337549000000001,-6.656434E7
6.345887000000001,-6.6597464E7
6.354226000000001,-6.663516E7
6.362565,-6.6659936E7
6.370904000000001,-6.6673056E7
6.379243000000001,-6.6682328E7
6.387582,-6.678604E7
6.395921000000001,-6.6795608E7
6.404260000000001,-6.6955456E7
6.412598000000001,-6.7033016E7
6.420938,-6.712336E7
6.429276,-6.7205312E7
6.437615000000001,-6.7325944E7
6.445954,-6.7377656E7
6.454293,-6.740112E7
6.462631999999999,-6.7487432E7
6.4709710000000005,-6.756336E7
6.47931,-6.7589824E7
6.487648000000002,-6.7729872E7
6.495987000000001,-6.7830576E7
6.504326000000001,-6.7828464E7
6.512665000000002,-6.7958656E7
6.521004000000001,-6.8004168E7
6.529343000000001,-6.8024656E7
6.537682,-6.8110928E7
6.546021000000001,-6.8162256E7
6.554359000000002,-6.8220448E7
6.562698000000001,-6.8279752E7
6.5710370000000005,-6.8374952E7
6.579376,-6.8396032E7
6.587715000000001,-6.8503968E7
6.5960540000000005,-6.854744E7
6.604393,-6.860632E7
6.612732000000001,-6.8611488E7
6.621071000000001,-6.8693616E7
6.629409000000001,-6.8771504E7
6.637748,-6.8874224E7
6.646087,-6.8919888E7
6.654425999999999,-6.8957576E7
6.662765000000002,-6.9018696E7
6.6711040000000015,-6.9067912E7
6.679443000000001,-6.910544E7
6.687782000000002,-6.9155744E7
6.6961200000000005,-6.9218648E7
6.704459000000002,-6.9269608E7
6.712798000000001,-6.9315472E7
6.721137000000001,-6.9358472E7
6.729476000000002,-6.9445632E7
6.737815000000001,-6.9522008E7
6.746154000000001,-6.9557456E7
6.754493,-6.9604808E7
6.762831,-6.9600016E7
6.77117,-6.9679728E7
6.779509000000001,-6.9743848E7
6.787848,-6.9821136E7
6.796187,-6.9856128E7
6.804526000000001,-6.991148E7
6.812865,-6.9982032E7
6.821204,-7.0007584E7
6.829542,-7.0076496E7
6.837881000000001,-7.0118016E7
6.846220000000002,-7.0171152E7
6.854559000000002,-7.0264448E7
6.862898000000001,-7.0294944E7
6.871237000000001,-7.0376808E7
6.879576000000002,-7.0440664E7
6.887915000000001,-7.0490064E7
6.896254000000001,-7.0480816E7
6.904592000000001,-7.0434304E7
6.912931,-7.0285864E7
6.921270000000002,-7.0014168E7
6.929609000000001,-6.9647456E7
6.9379480000000004,-6.9297792E7
6.946287,-6.8902104E7
6.954626000000001,-6.852616E7
6.9629650000000005,-6.8096568E7
6.971303000000001,-6.7713328E7
6.979642,-6.7267712E7
6.9879809999999996,-6.6989856E7
6.996320000000001,-6.6737736E7
7.004659,-6.6498888E7
7.012998,-6.6314328E7
7.021336999999999,-6.6078696E7
7.029676,-6.598066E7
7.038014000000002,-6.5828832E7
7.046353000000002,-6.5860332E7
7.054692000000001,-6.574636E7
7.0630310000000005,-6.5705016E7
7.071370000000002,-6.5672208E7
7.079709000000001,-6.5637816E7
7.088048000000001,-6.5610564E7
7.096387000000002,-6.553794E7
7.104726000000001,-6.5483592E7
7.113065000000001,-6.549552E7
7.121403000000001,-6.5444012E7
7.129742,-6.5708568E7
7.138081,-6.5773192E7
7.146420000000001,-6.5960472E7
7.154759,-6.6053448E7
7.163098,-6.6129652E7
7.171437000000001,-6.6203776E7
7.179774999999999,-6.6323288E7
7.188114000000001,-6.6405312E7
7.196453,-6.6454176E7
7.204791999999999,-6.6510768E7
7.213131000000002,-6.6576332E7
7.221470000000002,-6.6596812E7
7.229809000000001,-6.6633552E7
7.238148000000001,-6.6685036E7
7.246486000000001,-6.6696456E7
7.254825,-6.6711044E7
7.2631640000000015,-6.6709352E7
7.271503000000001,-6.6720304E7
7.279842,-6.6768112E7
7.288181000000002,-6.673648E7
7.296520000000001,-6.679392E7
7.304859,-6.682378E7
7.313198,-6.6920408E7
7.321536,-6.6979176E7
7.329875000000001,-6.7021576E7
7.338214000000001,-6.7116016E7
7.346553,-6.7210704E7
7.3548919999999995,-6.7278512E7
7.363231000000001,-6.7363488E7
7.37157,-6.7432736E7
7.379909,-6.7539552E7
7.388247000000002,-6.7654216E7
7.396587,-6.7735528E7
7.404925000000002,-6.7764784E7
7.413264000000002,-6.7903504E7
7.421603000000001,-6.7971264E7
7.4299420000000005,-6.8045488E7
7.438281000000002,-6.8119488E7
7.446620000000001,-6.82106E7
7.454959000000001,-6.8277152E7
7.463297000000001,-6.83168E7
7.471636,-6.840784E7
7.479975000000001,-6.847712E7
7.488314000000001,-6.8546616E7
7.496653,-6.8645952E7
7.504992000000001,-6.869008E7
7.513331000000001,-6.873812E7
7.52167,-6.8800848E7
7.5300080000000005,-6.8596112E7
7.538347,-6.8663024E7
7.546685999999999,-6.8486312E7
7.5550250000000005,-6.8567792E7
7.563364,-6.8627472E7
7.571702999999999,-6.8666144E7
7.580042000000001,-6.875532E7
7.588381000000002,-6.8781888E7
7.596720000000001,-6.8800696E7
7.605058000000001,-6.8854608E7
7.613397000000001,-6.8925832E7
7.621736,-6.8982648E7
7.6300750000000015,-6.9090712E7
7.638414000000001,-6.9148232E7
7.646753,-6.922704E7
7.655092000000002,-6.9285824E7
7.663431000000001,-6.9353904E7
7.67177,-6.9429144E7
7.680108000000001,-6.9447824E7
7.688447,-6.9502576E7
7.696786000000001,-6.9564184E7
7.705125000000001,-6.9612E7
7.713464,-6.9695352E7
7.7218029999999995,-6.9773704E7
7.730142000000001,-6.982576E7
7.738479999999999,-6.9925072E7
7.746819,-6.9961024E7
7.755158,-7.0077872E7
7.763497000000001,-7.0080288E7
7.771836000000002,-7.01548E7
7.780175000000002,-7.0194976E7
7.788514000000001,-7.0213488E7
7.7968530000000005,-7.0153664E7
7.805191000000001,-6.9977272E7
7.813531000000001,-6.965132E7
7.821869000000001,-6.925844E7
7.830208000000001,-6.8912704E7
7.838547,-6.8485408E7
7.846886000000001,-6.8129424E7
7.855225000000001,-6.767388E7
7.863564,-6.7321664E7
7.871902,-6.7001576E7
7.880242000000001,-6.6758864E7
7.888580000000001,-6.6575448E7
7.8969190000000005,-6.6336008E7
7.905258,-6.621728E7
7.913596999999999,-6.6121872E7
7.9219360000000005,-6.598826E7
7.930275,-6.5894736E7
7.938613999999999,-6.58414E7
7.946952000000001,-6.5765512E7
7.955291000000001,-6.5761644E7
7.963630000000002,-6.5693236E7
7.971969000000001,-6.5680088E7
7.980308000000001,-6.5709344E7
7.988647000000002,-6.5666928E7
7.9969860000000015,-6.5628128E7
8.005325000000001,-6.5642796E7
8.013663000000001,-6.5629048E7
8.022002,-6.5665616E7
8.030341,-6.5723256E7
8.038680000000001,-6.582404E7
8.047019,-6.5865864E7
8.055358,-6.5978152E7
8.063697000000001,-6.6081E7
8.072036,-6.6162116E7
8.080374,-6.624174E7
8.088714,-6.6295456E7
8.097052,-6.632096E7
8.105391000000001,-6.6334988E7
8.11373,-6.6388484E7
8.122069,-6.6450452E7
8.130408,-6.6442896E7
8.138747000000002,-6.6481884E7
8.147086000000002,-6.6510468E7
8.155425000000001,-6.65216E7
8.163763000000001,-6.6486896E7
8.172102,-6.6569856E7
8.180441000000002,-6.6616856E7
8.188780000000001,-6.66756E7
8.197119,-6.6700272E7
8.205458,-6.6777264E7
8.213797000000001,-6.6867256E7
8.222136,-6.6991948E7
8.230474000000001,-6.7032848E7
8.238813,-6.7123568E7
8.247152,-6.7194184E7
8.255491000000001,-6.7297392E7
8.26383,-6.7373816E7
8.272169,-6.74444E7
8.280508000000001,-6.74738E7
8.288847,-6.7596576E7
8.297185,-6.7678368E7
8.305524,-6.7757928E7
8.313863000000001,-6.7843704E7
8.322202,-6.7954752E7
8.330541000000002,-6.8002352E7
8.338880000000001,-6.8115984E7
8.347219,-6.813464E7
8.355558000000002,-6.822408E7
8.363897000000001,-6.8311968E7
8.372235000000002,-6.8395984E7
8.380574000000001,-6.8450248E7
8.388913,-6.8520504E7
8.397252,-6.8536584E7
8.405591000000001,-6.8638952E7
8.41393,-6.86736E7
8.422269,-6.8788152E7
8.430607,-6.8851408E7
8.438946,-6.8884592E7
8.447285,-6.8924008E7
8.455624,-6.8989776E7
8.463963,-6.9025056E7
8.472302,-6.9161488E7
8.480641,-6.919016E7
8.48898,-6.9276848E7
8.497319,-6.9356744E7
8.505658,-6.9446736E7
8.513996,-6.9497696E7
8.522335000000002,-6.9552872E7
8.530674000000001,-6.9624144E7
8.539013,-6.964928E7
8.547352000000002,-6.9746608E7
8.555691000000001,-6.9765072E7
8.56403,-6.9836864E7
8.572369,-6.985312E7
8.580707,-6.9922832E7
8.589046000000002,-6.9987128E7
8.597385000000001,-7.0015824E7
8.605724,-7.0077896E7
8.614063,-7.0177296E7
8.622402000000001,-7.0219648E7
8.630741,-7.026912E7
8.639079,-7.0268408E7
8.647418,-7.0257848E7
8.655757,-7.013104E7
8.664096,-6.9844632E7
8.672435,-6.9487184E7
8.680774,-6.9141424E7
8.689113,-6.8733232E7
8.697452000000002,-6.8384024E7
8.705791000000001,-6.7975304E7
8.71413,-6.7595872E7
8.722468000000001,-6.7287904E7
8.730807,-6.7009688E7
8.739146000000002,-6.6804564E7
8.747485000000001,-6.6580864E7
8.755824,-6.6421276E7
8.764163000000002,-6.634248E7
8.772502000000001,-6.6231192E7
8.780841,-6.6163296E7
8.789179,-6.6149968E7
8.797518,-6.606912E7
8.805857,-6.603238E7
8.814196,-6.6015616E7
8.822535,-6.596208E7
8.830874,-6.5930064E7
8.839213,-6.5916328E7
8.847551,-6.5944904E7
8.855890000000002,-6.5953288E7
8.864229000000002,-6.5972056E7
8.872568000000001,-6.604322E7
8.880907000000002,-6.605122E7
8.889246000000002,-6.6131648E7
8.897585000000001,-6.6215152E7
8.905924,-6.6245304E7
8.914262,-6.6364376E7
8.922601,-6.64598E7
8.930940000000001,-6.6514508E7
8.939279,-6.6578764E7
8.947618,-6.6586244E7
8.955957000000001,-6.6620676E7
8.964296000000001,-6.664442E7
8.972635,-6.6604184E7
8.980974,-6.6688872E7
8.989313000000001,-6.6710944E7
8.997651,-6.672274E7
9.00599,-6.6735668E7
9.014329,-6.6755192E7
9.022668,-6.68184E7
9.031007,-6.6815664E7
9.039346,-6.6886828E7
9.047685,-6.695784E7
9.056023999999999,-6.6939968E7
9.064362000000001,-6.7046324E7
9.072701000000002,-6.71456E7
9.081040000000002,-6.717116E7
9.089379000000001,-6.728248E7
9.097718,-6.735752E7
9.106057000000002,-6.7496024E7
9.114396000000001,-6.759924E7
9.122735,-6.7683232E7
9.131073,-6.7745392E7
9.139412,-6.779644E7
9.147751000000001,-6.7952216E7
9.15609,-6.8017984E7
9.164429,-6.8078776E7
9.172768,-6.8230064E7
9.181107,-6.8287888E7
9.189446,-6.8399704E7
9.197784,-6.8446112E7
9.206123,-6.8516912E7
9.214462,-6.8620832E7
9.222801,-6.868392E7
9.231140000000002,-6.8773024E7
9.239479000000001,-6.8835904E7
9.247818000000002,-6.8934264E7
9.256157000000002,-6.8957984E7
9.264495000000002,-6.903392E7
9.272834000000001,-6.9112704E7
9.281173,-6.9153184E7
9.289512,-6.9251648E7
9.297851000000001,-6.9343064E7
9.30619,-6.9389496E7
9.314529,-6.9455984E7
9.322868000000001,-6.9579744E7
9.331206,-6.9547024E7
9.339545000000001,-6.9588592E7
9.347884,-6.9652232E7
9.356223,-6.9778392E7
9.364562000000001,-6.978044E7
9.372901,-6.9883648E7
9.38124,-6.9969528E7
9.389579,-6.9989968E7
9.397918,-7.0103264E7
9.406257,-7.017368E7
9.414595000000002,-7.0219568E7
9.422934000000001,-7.0270832E7
9.431273000000001,-7.0316056E7
9.439612000000002,-7.0406272E7
9.447951000000002,-7.0385176E7
9.456290000000001,-7.038176E7
9.464629,-7.02296E7
9.472967,-7.0091016E7
9.481307000000001,-6.96862E7
9.489645000000001,-6.9319296E7
9.497984,-6.8980416E7
9.506323,-6.8642704E7
9.514662000000001,-6.8287136E7
9.523001,-6.7906232E7
9.53134,-6.760464E7
9.539679000000001,-6.7353472E7
9.548018,-6.709302E7
9.556356000000001,-6.693804E7
9.564695,-6.6736544E7
9.573034,-6.6427056E7
9.581373,-6.6373276E7
9.589712,-6.6376392E7
9.598051,-6.632122E7
9.606390000000001,-6.6233152E7
9.614729000000002,-6.6213792E7
9.623067,-6.6130172E7
9.631406000000002,-6.6075676E7
9.639745000000001,-6.61468E7
9.648084,-6.6091416E7
9.656423000000002,-6.6269624E7
9.664762000000001,-6.6287392E7
9.673101,-6.6478272E7
9.681439000000001,-6.6684208E7
9.689779000000001,-6.6900184E7
9.698117,-6.7163648E7
9.706456000000001,-6.7434448E7
9.714795,-6.7694672E7
9.723134,-6.7852376E7
9.731473000000001,-6.8141904E7
9.739812,-6.8341904E7
9.748151,-6.853648E7
9.75649,-6.8684608E7
9.764828,-6.8785952E7
9.773166999999999,-6.8938E7
9.781506000000002,-6.9098416E7
9.789845000000001,-6.9262736E7
9.798184000000001,-6.9438728E7
9.806523000000002,-6.9520896E7
9.814862000000002,-6.9766192E7
9.823201000000001,-6.9839616E7
9.831539000000001,-6.9999776E7
9.839878,-7.0098544E7
9.848217000000002,-7.0214416E7
9.856556000000001,-7.0345664E7
9.864895,-7.045116E7
9.873234,-7.0495568E7
9.881573000000001,-7.048224E7
9.889912,-7.0602704E7
9.898251,-7.0555368E7
9.906589,-7.0684704E7
9.914928,-7.0759232E7
9.923267000000001,-7.086444E7
9.931606,-7.0959568E7
9.939945,-7.106236E7
9.948284,-7.1101184E7
9.956623,-7.1271376E7
9.964961000000002,-7.1257056E7
9.973300000000002,-7.14336E7
9.981639000000001,-7.1530208E7
9.989978,-7.1641824E7
9.998317000000002,-7.175456E7
10.006656000000001,-7.1848736E7
10.014995,-7.193872E7
10.023334000000002,-7.2015904E7
10.031672,-7.2117768E7
10.040011000000002,-7.2207792E7
10.048350000000001,-7.2313456E7
10.056689,-7.231456E7
10.065028,-7.244696E7
10.073367000000001,-7.25928E7
10.081706,-7.2705424E7
10.090045,-7.273128E7
10.098384000000001,-7.276056E7
10.106723,-7.2820256E7
10.115061,-7.2522344E7
10.1234,-7.2562464E7
10.131739,-7.2333656E7
10.140078,-7.2396496E7
10.148417,-7.2483504E7
10.156756000000001,-7.2582416E7
10.165094000000002,-7.2633232E7
10.173433000000001,-7.2683432E7
10.181772,-7.2784304E7
10.190111000000002,-7.2812056E7
10.198450000000001,-7.2842032E7
10.206789,-7.2878128E7
10.215128000000002,-7.2809872E7
10.223467000000001,-7.270428E7
10.231806,-7.2490784E7
10.240144,-7.228752E7
10.248483,-7.2018256E7
10.256822000000001,-7.1656472E7
10.265161,-7.1322104E7
10.2735,-7.100288E7
10.281839,-7.0804128E7
10.290178000000001,-7.0593648E7
10.298517,-7.0454616E7
10.306855,-7.0347128E7
10.315195000000001,-7.0228032E7
10.323533,-7.021996E7
10.331872000000002,-7.0147184E7
10.340211000000002,-7.0197336E7
10.348550000000001,-7.0189472E7
10.356889,-7.0241848E7
10.365228000000002,-7.0333296E7
10.373566,-7.0372328E7
10.381905000000001,-7.040008E7
10.390244000000001,-7.0453104E7
10.398583,-7.0522272E7
10.406922000000002,-7.0531136E7
10.415261000000001,-7.0605424E7
10.4236,-7.0687936E7
10.431939000000002,-7.0744752E7
10.440278000000001,-7.0840648E7
10.448616000000001,-7.0913488E7
10.456955,-7.1006224E7
10.465294,-7.1050016E7
10.473633,-7.1180592E7
10.481972,-7.1252512E7
10.490311,-7.1349456E7
10.49865,-7.1409704E7
10.506989,-7.1453728E7
10.515327000000001,-7.1485904E7
10.523666000000002,-7.1593136E7
10.532005000000002,-7.1550624E7
10.540344000000001,-7.1606192E7
10.548683,-7.158976E7
10.557022000000002,-7.1647904E7
10.565361000000001,-7.1709296E7
10.5737,-7.174176E7
10.582038,-7.1831584E7
10.590378000000001,-7.1889376E7
10.598716000000001,-7.1939232E7
10.607055,-7.1953248E7
10.615394,-7.1982736E7
10.623733000000001,-7.2043688E7
10.632072,-7.209792E7
10.640411,-7.2170384E7
10.64875,-7.22768E7
10.657088,-7.235388E7
10.665427,-7.2444992E7
10.673766,-7.2547376E7
10.682105,-7.2606288E7
10.690444,-7.2639472E7
10.698783,-7.2679048E7
10.707122000000002,-7.2778376E7
10.715461000000001,-7.278824E7
10.7238,-7.2899552E7
10.732138,-7.3014464E7
10.740477000000002,-7.3120064E7
10.748816000000001,-7.3201352E7
10.757155000000001,-7.3296336E7
10.765494,-7.334968E7
10.773833,-7.3450208E7
10.782172,-7.35304E7
10.790511000000002,-7.3614032E7
10.798849,-7.3684752E7
10.807188,-7.3793504E7
10.815527,-7.3813904E7
10.823865999999999,-7.384168E7
10.832205000000002,-7.3860784E7
10.840544000000001,-7.3874896E7
10.848883,-7.3974584E7
10.857222,-7.401756E7
10.865561,-7.408964E7
10.873899000000002,-7.4157072E7
10.882238000000001,-7.4248352E7
10.890577,-7.4329832E7
10.898916,-7.4483592E7
10.907255000000003,-7.4555512E7
10.915594000000002,-7.4669376E7
10.923933000000002,-7.4716608E7
10.932271,-7.469592E7
10.94061,-7.4631472E7
10.948949000000002,-7.4566424E7
10.957288000000002,-7.4416576E7
10.965627000000001,-7.4233136E7
10.973966,-7.3954232E7
10.982305,-7.3597968E7
10.990644,-7.3240272E7
10.998982000000002,-7.2920264E7
11.007321000000001,-7.27212E7
11.01566,-7.2562456E7
11.023999,-7.2449392E7
11.032338,-7.2393544E7
11.040676999999999,-7.2231168E7
11.049016000000002,-7.2225016E7
11.057355000000001,-7.2266992E7
11.065694,-7.2296496E7
11.074033,-7.237012E7
11.082371000000002,-7.2462192E7
11.090710000000001,-7.2532144E7
11.099049,-7.2641424E7
11.107388,-7.2591392E7
11.115727,-7.2582712E7
11.124066000000003,-7.2576624E7
11.132405000000002,-7.2641176E7
11.140743,-7.2648448E7
11.149083000000001,-7.2770856E7
11.157421,-7.279956E7
11.165760000000002,-7.2854992E7
11.174099000000002,-7.2923472E7
11.182438000000001,-7.2898416E7
11.190777,-7.2931328E7
11.199116,-7.2946544E7
11.207453999999998,-7.2976656E7
11.215793999999999,-7.3016464E7
11.224132,-7.3037944E7
11.232471,-7.2980064E7
11.24081,-7.2962112E7
11.249149,-7.2880432E7
11.257487999999999,-7.2841952E7
11.265826999999998,-7.2775472E7
11.274166000000001,-7.2754656E7
11.282505,-7.267436E7
11.290842999999999,-7.2633952E7
11.299181999999998,-7.2657232E7
11.307520999999998,-7.2678568E7
11.31586,-7.2616408E7
11.324199,-7.2656144E7
11.332538,-7.2699656E7
11.340876999999999,-7.274128E7
11.349215000000001,-7.2743632E7
11.357554000000004,-7.2805872E7
11.365893000000003,-7.2829816E7
11.374232000000003,-7.2920952E7
11.382571000000002,-7.2969304E7
11.390910000000002,-7.2970896E7
11.399249000000001,-7.30536E7
11.407588,-7.3030976E7
11.415927000000003,-7.3066272E7
11.424265000000002,-7.3075792E7
11.432604000000001,-7.31012E7
11.440943,-7.3104208E7
11.449282,-7.3175776E7
11.457621000000003,-7.3252288E7
11.465960000000003,-7.3246016E7
11.474299000000002,-7.3323312E7
11.482638000000001,-7.3357936E7
11.490977,-7.3371296E7
11.499315,-7.3414256E7
11.507654000000002,-7.3448656E7
11.515993000000002,-7.3422224E7
11.524332000000001,-7.3493936E7
11.532671,-7.3540648E7
11.54101,-7.3618736E7
11.549349,-7.3675616E7
11.557687000000001,-7.3751808E7
11.566026,-7.3826768E7
11.574365,-7.3848E7
11.582704,-7.387736E7
11.591042999999999,-7.3895376E7
11.599381999999999,-7.3942616E7
11.607721000000002,-7.4000816E7
11.616060000000001,-7.3995624E7
11.624398,-7.4036824E7
11.632736999999999,-7.3988992E7
11.641075999999998,-7.3867408E7
11.649415000000001,-7.373968E7
11.657754,-7.3614912E7
11.666093,-7.3247144E7
11.674432,-7.2849448E7
11.682770999999999,-7.250272E7
11.691109999999998,-7.2142864E7
11.699448999999998,-7.1808352E7
11.707787000000003,-7.1479232E7
11.716126000000003,-7.1187496E7
11.724465000000002,-7.0958704E7
11.732804000000002,-7.076956E7
11.741143000000001,-7.064076E7
11.749482000000004,-7.054684E7
11.757821000000003,-7.0488448E7
11.766160000000003,-7.0401728E7
11.774498000000001,-7.0294736E7
11.782837,-7.028436E7
11.791176,-7.0276536E7
11.799515000000003,-7.0290568E7
11.807854000000003,-7.033016E7
11.816193000000002,-7.0375848E7
11.824532000000001,-7.0390632E7
11.832871,-7.0437776E7
11.841209000000003,-7.051796E7
11.849548000000002,-7.058064E7
11.857887000000002,-7.0674992E7
11.866226000000001,-7.0738376E7
11.874565,-7.0885048E7
11.882904,-7.1035232E7
11.891243,-7.1078256E7
11.899582000000002,-7.116068E7
11.90792,-7.1231616E7
11.916259,-7.1258352E7
11.924598,-7.1309248E7
11.932936999999999,-7.133884E7
11.941276000000002,-7.1331968E7
11.949615000000001,-7.141416E7
11.957954,-7.1398008E7
11.966293,-7.1444168E7
11.974632,-7.1430712E7
11.982971,-7.1458848E7
11.991309000000001,-7.150616E7
11.999648,-7.1513008E7
12.007987,-7.1526888E7
12.016326,-7.157524E7
12.024664999999999,-7.1612336E7
12.033003999999998,-7.1648408E7
12.041342999999998,-7.1737648E7
12.049682,-7.1744376E7
12.058019999999999,-7.1819024E7
12.066358999999999,-7.1866352E7
12.074698000000001,-7.1876792E7
12.083037000000001,-7.195024E7
12.091376000000004,-7.2016528E7
12.099715000000003,-7.2072672E7
12.108054000000003,-7.210576E7
12.116392000000001,-7.221736E7
12.124731,-7.2275552E7
12.133070000000004,-7.2325504E7
12.141409000000003,-7.239456E7
12.149748000000002,-7.2440176E7
12.158087000000002,-7.2469168E7
12.166426000000001,-7.2478072E7
12.174765,-7.2535952E7
12.183103000000003,-7.2582736E7
12.191443000000003,-7.2635872E7
12.199781000000002,-7.2732008E7
12.208120000000001,-7.2793848E7
12.216459,-7.2869616E7
12.224798,-7.295584E7
12.233137000000003,-7.3026096E7
12.241476000000002,-7.3082144E7
12.249815000000002,-7.311928E7
12.258154000000001,-7.315584E7
12.266492,-7.31968E7
12.274830999999999,-7.3249808E7
12.283170000000002,-7.324704E7
12.291509000000001,-7.3270112E7
12.299848,-7.32736E7
12.308187,-7.3215248E7
12.316526,-7.3119216E7
12.324864000000002,-7.2899824E7
12.333203000000001,-7.2497384E7
12.341542,-7.21176E7
12.349881,-7.1760016E7
12.35822,-7.1430296E7
12.366558999999999,-7.102952E7
12.374897999999998,-7.0619472E7
12.383237000000001,-7.0361888E7
12.391576,-7.0022848E7
12.399915,-6.982172E7
12.408252999999998,-6.9634656E7
12.416591999999998,-6.9538112E7
12.424931,-6.9497872E7
12.43327,-6.9390768E7
12.441609,-6.9407184E7
12.449948000000003,-6.9388704E7
12.458287000000002,-6.9406E7
12.466625000000004,-6.9346976E7
12.474964000000003,-6.9335008E7
12.483303000000003,-6.9345872E7
12.491642000000002,-6.9380224E7
12.499981000000002,-6.9383808E7
12.508320000000001,-6.9475128E7
12.516659,-6.9485072E7
12.524998000000004,-6.9563672E7
12.533336000000002,-6.96752E7
12.541675000000001,-6.9815736E7
12.550014000000001,-6.9884448E7
12.558353,-6.9900416E7
12.566692,-6.9955376E7
12.575031000000003,-6.9978704E7
12.583370000000002,-7.0050496E7
12.591709000000002,-7.0014736E7
12.600048000000001,-7.0072648E7
12.608386,-7.0077664E7
12.616725000000002,-7.0047632E7
12.625064000000002,-7.0036336E7
12.633403000000001,-6.995088E7
12.641742,-6.9947792E7
12.650081,-6.9959864E7
12.65842,-6.9969856E7
12.666758000000002,-6.9963456E7
12.675097000000001,-7.0024864E7
12.683436,-7.005684E7
12.691775,-7.0149304E7
12.700114,-7.019572E7
12.708452999999999,-7.027392E7
12.716792000000002,-7.0348528E7
12.725131000000001,-7.0343424E7
12.73347,-7.0427584E7
12.741809,-7.0473872E7
12.750146999999998,-7.0553352E7
12.758485999999998,-7.0650672E7
12.766825,-7.0667248E7
12.775164,-7.0827888E7
12.783503,-7.0946816E7
12.791841999999999,-7.1085824E7
12.800180999999998,-7.109852E7
12.808519999999998,-7.1236352E7
12.816858999999997,-7.1266528E7
12.825197000000003,-7.1336384E7
12.833536000000002,-7.14104E7
12.841875000000002,-7.1510512E7
12.850214000000001,-7.1545488E7
12.858553,-7.1650336E7
12.866892000000004,-7.173408E7
12.875231000000003,-7.1793896E7
12.883570000000002,-7.186836E7
12.891908,-7.202184E7
12.900247,-7.2107192E7
12.908586000000003,-7.209184E7
12.916925000000003,-7.2173632E7
12.925264000000002,-7.226704E7
12.933603000000002,-7.22708E7
12.941942000000001,-7.222332E7
12.950281,-7.2123504E7
12.958619000000002,-7.1786584E7
12.966958000000002,-7.1473992E7
12.975297000000001,-7.1101424E7
12.983636,-7.0773728E7
12.991975,-7.0358048E7
13.000314,-6.9964592E7
13.008653000000002,-6.9632688E7
13.016992000000002,-6.9370416E7
13.025331000000001,-6.9141456E7
13.033669,-6.8937416E7
13.042008,-6.8812928E7
13.050346999999999,-6.8741664E7
13.058686000000002,-6.8661952E7
13.067025000000001,-6.8634688E7
13.075364,-6.8632584E7
13.083701999999999,-6.8651928E7
13.092042,-6.8658832E7
13.100380000000001,-6.8666824E7
13.108719,-6.8688528E7
13.117058,-6.8733728E7
13.125397,-6.879288E7
13.133735999999999,-6.8820336E7
13.142074999999998,-6.885336E7
13.150413999999998,-6.8925664E7
13.158752,-6.8982144E7
13.167091,-6.9069808E7
13.175430000000002,-6.912048E7
13.183769000000002,-6.9205648E7
13.192108000000001,-6.9353232E7
13.200447000000004,-6.9435824E7
13.208786000000003,-6.9478688E7
13.217125000000003,-6.9551664E7
13.225463000000001,-6.9590976E7
13.233802,-6.9628688E7
13.242141000000004,-6.9666752E7
13.250480000000003,-6.9665112E7
13.258819000000003,-6.970216E7
13.267158000000002,-6.9652944E7
13.275497000000001,-6.9657744E7
13.283836,-6.9688888E7
13.292175,-6.971576E7
13.300513000000002,-6.9682048E7
13.308852000000002,-6.967132E7
13.317191000000001,-6.9707168E7
13.32553,-6.9725784E7
13.333869,-6.9790928E7
13.342208,-6.986504E7
13.350547000000002,-6.9937112E7
13.358886000000002,-7.0034E7
13.367225000000001,-7.0083584E7
13.375563,-7.0207584E7
13.383901999999999,-7.0253464E7
13.392241000000002,-7.0329984E7
13.400580000000001,-7.039944E7
13.408919000000001,-7.0514992E7
13.417258,-7.0526528E7
13.425597,-7.0647856E7
13.433935000000002,-7.0702048E7
13.442274000000001,-7.07972E7
13.450613,-7.0897808E7
13.458952,-7.09744E7
13.467291,-7.1038032E7
13.475629999999999,-7.110012E7
13.483968999999998,-7.118132E7
13.492308000000001,-7.1279888E7
13.500647,-7.1352448E7
13.508985,-7.1406112E7
13.517323999999999,-7.1464272E7
13.525662999999998,-7.1545208E7
13.534001999999997,-7.1541552E7
13.542341,-7.1607072E7
13.550680000000003,-7.1534656E7
13.559019000000003,-7.1345616E7
13.567358000000002,-7.1016352E7
13.575697000000002,-7.0614576E7
13.584035000000004,-7.0271704E7
13.592374000000003,-6.9860496E7
13.600713000000002,-6.9404712E7
13.609052000000002,-6.8973168E7
13.617391000000001,-6.8562312E7
13.62573,-6.8230192E7
13.634069,-6.8055456E7
13.642408000000003,-6.780032E7
13.650746000000002,-6.766792E7
13.659085000000001,-6.7519056E7
13.667424,-6.7443632E7
13.675763,-6.741272E7
13.684102000000003,-6.7426368E7
13.692441000000002,-6.7429104E7
13.700780000000002,-6.7707512E7
13.709118,-6.7766544E7
13.717458,-6.7965696E7
13.725796000000003,-6.7973144E7
13.734135000000002,-6.8007136E7
13.742474000000001,-6.806736E7
13.750813,-6.809272E7
13.759152,-6.8142312E7
13.767491,-6.81594E7
13.77583,-6.82208E7
13.784168000000001,-6.8357112E7
13.792507,-6.8413512E7
13.800846,-6.859352E7
13.809185,-6.872856E7
13.817523999999999,-6.883768E7
13.825862999999998,-6.8943656E7
13.834202000000001,-6.8944624E7
13.842541,-6.8940176E7
13.850878999999999,-6.896232E7
13.859217999999998,-6.8970256E7
13.867556999999998,-6.9001088E7
13.875896000000001,-6.9022736E7
13.884235,-6.9048408E7
13.892574,-6.9102816E7
13.900913,-6.9148928E7
13.909251999999999,-6.9195184E7
13.917590999999998,-6.9223304E7
13.925929000000004,-6.9255568E7
13.934268000000003,-6.9271136E7
13.942607000000002,-6.937496E7
13.950946000000002,-6.944936E7
13.959285000000001,-6.9543824E7
13.967624,-6.9647904E7
13.975963000000004,-6.9776416E7
13.984302000000003,-6.9880384E7
13.992641000000003,-7.000344E7
14.000979000000001,-7.0065968E7
14.009318,-7.0180408E7
14.017657,-7.0193056E7
14.025996000000003,-7.0319416E7
14.034335000000002,-7.0437296E7
14.042674000000002,-7.050184E7
14.051013000000001,-7.0685408E7
14.059352,-7.07388E7
14.067690000000002,-7.0810048E7
14.076029000000002,-7.0914944E7
14.084368000000001,-7.0969736E7
14.092707,-7.103292E7
14.101046,-7.108848E7
14.109385,-7.1089056E7
14.117723999999999,-7.111608E7
14.126063000000002,-7.1222432E7
14.134402000000001,-7.1270048E7
14.14274,-7.1362936E7
14.151079,-7.1394648E7
14.159417999999999,-7.1382704E7
14.167757000000002,-7.1304704E7
14.176096000000001,-7.1084496E7
14.184435,-7.0773296E7
14.192774,-7.0473592E7
14.201113,-7.0090296E7
14.209451000000001,-6.9653056E7
14.21779,-6.9193608E7
14.226129,-6.8703648E7
14.234468,-6.8339112E7
14.242806999999999,-6.80012E7
14.251145999999999,-6.7700928E7
14.259484999999998,-6.741952E7
14.267824000000001,-6.7270912E7
14.276163,-6.7125808E7
14.284501000000002,-6.7019912E7
14.292840000000002,-6.6946304E7
14.301179000000001,-6.6859784E7
14.309518,-6.6844148E7
14.317857000000004,-6.6881836E7
14.326196000000003,-6.6922224E7
14.334535000000002,-6.6941108E7
14.342874000000002,-6.6930928E7
14.351212,-6.6955388E7
14.359551000000003,-6.6957384E7
14.367890000000003,-6.6963876E7
14.376229000000002,-6.7012588E7
14.384568000000002,-6.7064792E7
14.392907000000001,-6.7174448E7
14.401246,-6.7255352E7
14.409585,-6.7393288E7
14.417923000000002,-6.7475368E7
14.426262000000001,-6.7650752E7
14.434601,-6.7710448E7
14.44294,-6.782096E7
14.451279,-6.7915272E7
14.459618000000003,-6.7918064E7
14.467957000000002,-6.7945128E7
14.476296000000001,-6.7939008E7
14.484635,-6.79444E7
14.492973,-6.7990712E7
14.501311999999999,-6.7981408E7
14.509651000000002,-6.800716E7
14.517990000000001,-6.7978392E7
14.526329,-6.8013272E7
14.534668,-6.8052864E7
14.543007,-6.8091632E7
14.551345999999999,-6.8141488E7
14.559684,-6.8228944E7
14.568023,-6.8303104E7
14.576362,-6.8386304E7
14.584700999999999,-6.8458976E7
14.593039999999998,-6.8520864E7
14.601378999999998,-6.8611928E7
14.609718,-6.8716544E7
14.618057,-6.8760288E7
14.626394999999999,-6.8850096E7
14.634733999999998,-6.8917624E7
14.643073000000001,-6.9016296E7
14.651412000000004,-6.9143776E7
14.659751000000004,-6.9275048E7
14.668090000000003,-6.9416608E7
14.676429000000002,-6.9515648E7
14.684767,-6.9597384E7
14.693107000000001,-6.9678448E7
14.701445000000003,-6.9751696E7
14.709784000000003,-6.9832776E7
14.718123000000002,-6.9879784E7
14.726462000000001,-6.9958248E7
14.734801000000001,-6.9988456E7
14.74314,-7.0124424E7
14.751478000000002,-7.018608E7
14.759817000000002,-7.0304416E7
14.768156000000001,-7.039012E7
14.776495,-7.0442376E7
14.784834,-7.0520656E7
14.793173,-7.0595224E7
14.801512000000002,-7.063752E7
14.809851000000002,-7.0617696E7
14.818190000000001,-7.0559008E7
14.826529,-7.0335272E7
14.834867,-6.9986256E7
14.843206000000002,-6.9640848E7
14.851545000000002,-6.9258864E7
14.859884000000001,-6.8818832E7
14.868223,-6.8328048E7
14.876562,-6.7870016E7
14.884901,-6.7478248E7
14.893239000000001,-6.708804E7
14.901578,-6.6793976E7
14.909917,-6.6519364E7
14.918256,-6.6286524E7
14.926594999999999,-6.6128608E7
14.934933999999998,-6.6017008E7
14.943273000000001,-6.5857228E7
14.951612,-6.5801056E7
14.959951,-6.5729888E7
14.96829,-6.5733268E7
14.976627999999998,-6.569868E7
14.984967000000001,-6.57049E7
14.993306,-6.573544E7
15.001645,-6.5752112E7
15.009984,-6.5737936E7
15.018323000000002,-6.573244E7
15.026662000000002,-6.5740216E7
15.035000000000004,-6.5795376E7
15.043339000000003,-6.5795368E7
15.051678000000003,-6.609704E7
15.060017000000002,-6.6181112E7
15.068356000000001,-6.6384688E7
15.076695,-6.6505288E7
15.085034,-6.6608448E7
15.093373000000003,-6.6736752E7
15.101711000000002,-6.6835964E7
15.110050000000001,-6.691068E7
15.118389,-6.6947344E7
15.126728,-6.6957292E7
15.135067000000003,-6.7088528E7
15.143406000000002,-6.7076528E7
15.151745000000002,-6.711512E7
15.160084000000001,-6.7125296E7
15.168422,-6.7126768E7
15.176762,-6.7083428E7
15.185100000000002,-6.713368E7
15.193439000000001,-6.7123776E7
15.201778000000001,-6.7168872E7
15.210117,-6.7207024E7
15.218456,-6.7284832E7
15.226795,-6.7338352E7
15.235134000000002,-6.7411328E7
15.243472,-6.7505856E7
15.251811,-6.7607296E7
15.26015,-6.7700904E7
15.268488999999999,-6.7805416E7
15.276827999999998,-6.7886384E7
15.285167000000001,-6.7936832E7
15.293506,-6.8005016E7
15.301845,-6.8111672E7
15.310182999999999,-6.8161032E7
15.318521999999998,-6.8304088E7
15.326861000000001,-6.8379616E7
15.3352,-6.8477952E7
15.343539,-6.8524448E7
15.351878,-6.864312E7
15.360216999999999,-6.8725304E7
15.368555999999998,-6.8874888E7
15.376894000000004,-6.895756E7
15.385233000000003,-6.9035088E7
15.393572000000002,-6.9163816E7
15.401911000000002,-6.9180848E7
15.410250000000001,-6.9265392E7
15.418589,-6.9346768E7
15.426928000000004,-6.9435096E7
15.435267000000003,-6.9271776E7
15.443606000000003,-6.936944E7
15.451945000000002,-6.919944E7
15.460283,-6.9273568E7
15.468622000000003,-6.9365248E7
15.476961000000003,-6.9422904E7
15.485300000000002,-6.9470208E7
15.493639000000002,-6.9540016E7
15.501978000000001,-6.95556E7
15.510317,-6.9605872E7
15.518655000000003,-6.9474528E7
15.526994000000002,-6.9255664E7
15.535333000000001,-6.8950912E7
15.543672,-6.8639824E7
15.552011,-6.824752E7
15.56035,-6.7800016E7
15.568689,-6.731536E7
15.577028000000002,-6.6858624E7
15.585367000000002,-6.6527864E7
15.593705,-6.6166744E7
15.602044,-6.5903636E7
15.610382999999999,-6.5719032E7
15.618722000000002,-6.5523512E7
15.627061000000001,-6.5395692E7
15.6354,-6.520876E7
15.643739,-6.513812E7
15.652078,-6.5275532E7
15.660416999999999,-6.5210312E7
15.668755,-6.54114E7
15.677094,-6.5370136E7
15.685433,-6.536724E7
15.693772,-6.5329952E7
15.702110999999999,-6.5335128E7
15.710449999999998,-6.532956E7
15.718789000000001,-6.5280016E7
15.727128,-6.5290336E7
15.735465999999999,-6.5274148E7
15.743805000000002,-6.5262144E7
15.752144000000001,-6.5270536E7
15.760483000000004,-6.5301724E7
15.768822000000004,-6.540904E7
15.777161000000003,-6.551632E7
15.785500000000003,-6.5597936E7
15.793839000000002,-6.5764264E7
15.802177,-6.582716E7
15.810516000000003,-6.5930804E7
15.818855000000003,-6.598334E7
15.827194000000002,-6.6024144E7
15.835533000000002,-6.6031056E7
15.843872000000001,-6.6033136E7
15.852211,-6.6017076E7
15.86055,-6.5977648E7
15.868889000000003,-6.5976904E7
15.877227000000001,-6.5995524E7
15.885566,-6.6024176E7
15.893905,-6.6079128E7
15.902244,-6.610944E7
15.910583000000003,-6.6160824E7
15.918922000000002,-6.624526E7
15.927261000000001,-6.6256128E7
15.935599,-6.6352912E7
15.943939,-6.6493884E7
15.952277000000002,-6.657918E7
15.960616000000002,-6.6657004E7
15.968955000000001,-6.6748684E7
15.977294,-6.681608E7
15.985633,-6.691044E7
15.993972,-6.6951592E7
16.00231,-6.7083308E7
16.010649,-6.7160304E7
16.018988,-6.7278872E7
16.027327,-6.7368264E7
16.035666,-6.7446536E7
16.044005,-6.7531376E7
16.052343999999998,-6.7685104E7
16.060683,-6.7784912E7
16.069022,-6.78836E7
16.077361,-6.7980336E7
16.085698999999998,-6.8062512E7
16.094037999999998,-6.8168992E7
16.102377,-6.8279568E7
16.110716,-6.83476E7
16.119055000000003,-6.8427056E7
16.127394000000002,-6.8520224E7
16.135733000000002,-6.863064E7
16.144071000000004,-6.8717648E7
16.152411,-6.8857496E7
16.160749000000003,-6.8981184E7
16.169088000000002,-6.9074112E7
16.177427,-6.911392E7
16.185766,-6.8969232E7
16.194105,-6.8986784E7
16.202444000000003,-6.8905176E7
16.210783000000003,-6.8990248E7
16.219122000000002,-6.9085072E7
16.22746,-6.9199832E7
16.235799,-6.9248856E7
16.244138000000003,-6.9298592E7
16.252477000000003,-6.9363232E7
16.260816000000002,-6.9421592E7
16.269155,-6.9486448E7
16.277494,-6.9562688E7
16.285832,-6.9713312E7
16.294171000000002,-6.9811176E7
16.30251,-6.9894096E7
16.310849,-6.9978E7
16.319188,-7.0055408E7
16.327527,-7.0064672E7
16.335866,-7.0131048E7
16.344205,-7.0126912E7
16.352543,-7.000912E7
16.360882,-6.9772952E7
16.369221,-6.9465248E7
16.37756,-6.920268E7
16.385899,-6.8817248E7
16.394238,-6.827672E7
16.402577,-6.7790848E7
16.410916,-6.7310016E7
16.419255,-6.6828984E7
16.427592999999998,-6.6427032E7
16.435932,-6.602242E7
16.444271,-6.5728816E7
16.45261,-6.5475924E7
16.460949,-6.526528E7
16.469288,-6.5010948E7
16.477627,-6.486156E7
16.485965999999998,-6.471896E7
16.494305000000004,-6.4504376E7
16.502643000000003,-6.4628772E7
16.510982000000002,-6.4499632E7
16.519321,-6.4648404E7
16.52766,-6.4525316E7
16.535999000000004,-6.4600104E7
16.544338000000003,-6.4460328E7
16.552677000000003,-6.4403116E7
16.561015,-6.4312144E7
16.569354,-6.432096E7
16.577693,-6.4260608E7
16.586032000000003,-6.4304328E7
16.594371000000002,-6.4361132E7
16.602710000000002,-6.4383648E7
16.611049,-6.4517696E7
16.619388,-6.4563768E7
16.627727,-6.4622896E7
16.636066,-6.4663768E7
16.644404,-6.478466E7
16.652743,-6.4842616E7
16.661082,-6.489956E7
16.669421,-6.4934228E7
16.67776,-6.4957556E7
16.686099000000002,-6.49286E7
16.694438,-6.4961232E7
16.702776,-6.4935844E7
16.711115,-6.4949752E7
16.719454,-6.4986236E7
16.727793000000002,-6.5049984E7
16.736132,-6.5062668E7
16.744471,-6.5166996E7
16.75281,-6.5204644E7
16.761149,-6.5199788E7
16.769488,-6.5259928E7
16.777826,-6.5284756E7
16.786165,-6.5312376E7
16.794504,-6.5425008E7
16.802843,-6.5468836E7
16.811182,-6.5545552E7
16.819520999999998,-6.56636E7
16.827859999999998,-6.5757976E7
16.836199,-6.5881104E7
16.844538,-6.60094E7
16.852876000000002,-6.6086864E7
16.861215,-6.623028E7
16.869554,-6.6315328E7
16.877893000000004,-6.6363464E7
16.886232000000003,-6.6514148E7
16.894571000000003,-6.6556236E7
16.902910000000002,-6.6647752E7
16.911248,-6.6696432E7
16.919587000000003,-6.684434E7
16.927926000000003,-6.6932128E7
16.936265000000002,-6.705956E7
16.944604,-6.7153528E7
16.952943,-6.7226304E7
16.961282,-6.7371504E7
16.969621,-6.7499472E7
16.977960000000003,-6.755088E7
16.986298,-6.76608E7
16.994637,-6.773224E7
17.002976,-6.7846528E7
17.011315,-6.7954392E7
17.019654000000003,-6.7808416E7
17.027993000000002,-6.790532E7
17.036332,-6.7745696E7
17.04467,-6.777812E7
17.053009,-6.7857952E7
17.061348,-6.7954208E7
17.069687000000002,-6.7973504E7
17.078026,-6.8036088E7
17.086365,-6.81868E7
17.094704,-6.8312144E7
17.103043,-6.841488E7
17.111382,-6.8504384E7
17.119721,-6.8584752E7
17.128059,-6.869316E7
17.136398,-6.8814472E7
17.144737,-6.8863184E7
17.153076,-6.8931504E7
17.161414999999998,-6.903856E7
17.169754,-6.906088E7
17.178093,-6.9183728E7
17.186431,-6.9267408E7
17.19477,-6.9361712E7
17.203108999999998,-6.9405264E7
17.211448000000004,-6.9494304E7
17.219787000000004,-6.940832E7
17.228126000000003,-6.9186648E7
17.236465000000003,-6.8924736E7
17.244804000000002,-6.8656448E7
17.253143,-6.8276128E7
17.261481000000003,-6.7840536E7
17.269820000000003,-6.7316896E7
17.278159000000002,-6.6855208E7
17.286498,-6.6404984E7
17.294837,-6.600776E7
17.303176,-6.563772E7
17.311515000000004,-6.5322752E7
17.319854000000003,-6.5117812E7
17.328192,-6.4884528E7
17.336531,-6.4699932E7
17.34487,-6.450588E7
17.353209,-6.4358624E7
17.361548000000003,-6.4247712E7
17.369887000000002,-6.4129516E7
17.378226,-6.4058408E7
17.386565,-6.4276964E7
17.394903,-6.417896E7
17.403242000000002,-6.435126E7
17.411581,-6.430448E7
17.41992,-6.42322E7
17.428259,-6.4156296E7
17.436598,-6.414972E7
17.444937,-6.415612E7
17.453276,-6.4140672E7
17.461615000000002,-6.421366E7
17.469953,-6.4254352E7
17.478292,-6.4391616E7
17.486631,-6.444808E7
17.49497,-6.4591992E7
17.503309,-6.4740652E7
17.511648,-6.479456E7
17.519987,-6.4900544E7
17.528326,-6.49263E7
17.536665,-6.4920488E7
17.545002999999998,-6.4933792E7
17.553342,-6.4933088E7
17.561681,-6.494872E7
17.57002,-6.496308E7
17.578359,-6.4903584E7
17.586698000000002,-6.4854E7
17.595037,-6.492984E7
17.603376000000004,-6.4945264E7
17.611714000000003,-6.4963692E7
17.620053000000002,-6.501592E7
17.628392,-6.5151132E7
17.636731,-6.521236E7
17.64507,-6.531974E7
17.653409000000003,-6.5462016E7
17.661748000000003,-6.5589324E7
17.670087000000002,-6.576008E7
17.678426,-6.5862256E7
17.686764,-6.5942168E7
17.695103000000003,-6.6047144E7
17.703442000000003,-6.6162464E7
17.711781000000002,-6.6246344E7
17.72012,-6.63048E7
17.728459,-6.6419344E7
17.736798,-6.6551664E7
17.745136000000002,-6.6653336E7
17.753475,-6.6734112E7
17.761814,-6.686076E7
17.770153,-6.699042E7
17.778492,-6.7054416E7
17.786831,-6.7197472E7
17.795170000000002,-6.7269168E7
17.803509000000002,-6.738592E7
17.811847,-6.7530384E7
17.820186,-6.737776E7
17.828525,-6.7449136E7
17.836864,-6.7375656E7
17.845203,-6.7466048E7
17.853542,-6.754316E7
17.861881,-6.7639768E7
17.87022,-6.7726696E7
17.878557999999998,-6.7809432E7
17.886898,-6.7875824E7
17.895236,-6.7997856E7
17.903575,-6.80826E7
17.911914,-6.8216432E7
17.920253,-6.8306832E7
17.928592,-6.8421776E7
17.936930999999998,-6.8537056E7
17.94527,-6.861956E7
17.953608000000003,-6.8721776E7
17.961947000000002,-6.8867008E7
17.970286,-6.88906E7
17.978625,-6.900168E7
17.986964000000004,-6.909408E7
17.995303000000003,-6.9158E7
18.003642000000003,-6.9284928E7
18.011981000000002,-6.9381488E7
18.020319,-6.95166E7
18.028658000000004,-6.9606416E7
18.036997000000003,-6.9654336E7
18.045336000000002,-6.9843344E7
18.053675000000002,-6.9934576E7
18.062014,-7.0048736E7
18.070353,-7.0158432E7
18.078692,-7.0169376E7
18.087031000000003,-6.9889424E7
18.095370000000003,-6.9707856E7
18.103708,-6.9147712E7
18.112047,-6.8930936E7
18.120386,-6.8567552E7
18.128725,-6.8204864E7
18.137064000000002,-6.7782864E7
18.145403,-6.7272528E7
18.153742,-6.6845072E7
18.162081,-6.6505596E7
18.170419,-6.615792E7
18.178758000000002,-6.5883136E7
18.187097,-6.5612548E7
18.195436,-6.5501316E7
18.203775,-6.5315428E7
18.212114,-6.52628E7
18.220453,-6.5432904E7
18.228792,-6.5416188E7
18.237131,-6.5608432E7
18.245469,-6.5568392E7
18.253808,-6.5600556E7
18.262147,-6.5544644E7
18.270486,-6.5583588E7
18.278825,-6.561268E7
18.287164,-6.5604064E7
18.295503,-6.5607368E7
18.303841,-6.5705568E7
18.31218,-6.5678168E7
18.320519,-6.5798264E7
18.328858000000004,-6.5821984E7
18.337197000000003,-6.5881656E7
18.345536000000003,-6.5939312E7
18.353875000000002,-6.6079844E7
18.362214,-6.6163564E7
18.370552000000004,-6.6317452E7
18.378891000000003,-6.6411908E7
18.387230000000002,-6.6497116E7
18.395569000000002,-6.6594648E7
18.403908,-6.6636032E7
18.412247,-6.6686036E7
18.420586,-6.6690696E7
18.428925000000003,-6.6728528E7
18.437263,-6.6782536E7
18.445603000000002,-6.6835724E7
18.453941,-6.6914888E7
18.46228,-6.6971456E7
18.470619000000003,-6.7090884E7
18.478958000000002,-6.7146104E7
18.487297,-6.7177664E7
18.495636,-6.7208416E7
18.503975,-6.7333448E7
18.512313000000002,-6.7429024E7
18.520652000000002,-6.7474584E7
18.528991,-6.7614784E7
18.53733,-6.7692784E7
18.545669,-6.7789608E7
18.554008,-6.785032E7
18.562347,-6.800344E7
18.570686000000002,-6.812576E7
18.579025,-6.8217432E7
18.587363,-6.8384608E7
18.595702,-6.8472848E7
18.604041,-6.8612624E7
18.612379999999998,-6.87608E7
18.620719,-6.8863584E7
18.629058,-6.9007248E7
18.637397,-6.9101464E7
18.645736,-6.9189952E7
18.654073999999998,-6.928328E7
18.662413,-6.9373584E7
18.670752,-6.9477344E7
18.679091,-6.9610224E7
18.687430000000003,-6.9716752E7
18.695769000000002,-6.9798624E7
18.704108,-6.9837184E7
18.712447,-6.992056E7
18.720786000000004,-6.9684824E7
18.729124000000002,-6.9766136E7
18.737463,-6.963916E7
18.745802,-6.97132E7
18.754141,-6.9809416E7
18.762480000000004,-6.9879096E7
18.770819000000003,-6.989324E7
18.779158000000002,-6.9950752E7
18.787497000000002,-7.0021048E7
18.795835,-7.006288E7
18.804174000000003,-7.01268E7
18.812513000000003,-7.0179736E7
18.820852000000002,-7.0293728E7
18.829191,-7.0408288E7
18.83753,-7.0476896E7
18.845869,-7.0573376E7
18.854207000000002,-7.0630128E7
18.862547000000003,-7.0693936E7
18.870885,-7.0804096E7
18.879224,-7.0818112E7
18.887563,-7.0898448E7
18.895902,-7.0949328E7
18.904241,-7.0930056E7
18.912580000000002,-7.0810728E7
18.920919,-7.0606168E7
18.929257,-7.030768E7
18.937596,-7.0065128E7
18.945935,-6.970248E7
18.954274,-6.9285312E7
18.962613,-6.8920912E7
18.970952,-6.8450832E7
18.979291,-6.8061536E7
18.98763,-6.775988E7
18.995968,-6.7483664E7
19.004307,-6.7288624E7
19.012646,-6.7164248E7
19.020985,-6.7039532E7
19.029324,-6.7030612E7
19.037663,-6.6973568E7
19.046001999999998,-6.6968352E7
19.054341,-6.6963828E7
19.062680000000004,-6.6905376E7
19.071018000000002,-6.6930288E7
19.079357,-6.6884028E7
19.087696,-6.692586E7
19.096035,-6.691182E7
19.104374000000004,-6.6925604E7
19.112713000000003,-6.6979288E7
19.121052000000002,-6.7044288E7
19.129391000000002,-6.7144624E7
19.137729,-6.724212E7
19.146068000000003,-6.73472E7
19.154407000000003,-6.740944E7
19.162746000000002,-6.7594384E7
19.171085,-6.761852E7
19.179424,-6.7697952E7
19.187763,-6.7761344E7
19.196102,-6.7866208E7
19.20444,-6.7930944E7
19.212779,-6.7946768E7
19.221118,-6.7945768E7
19.229457,-6.797E7
19.237796,-6.796512E7
19.246135000000002,-6.7954576E7
19.254474000000002,-6.8002792E7
19.262813,-6.8002656E7
19.271152,-6.8021664E7
19.279491,-6.806056E7
19.287829000000002,-6.8084464E7
19.296168,-6.8125848E7
19.304507,-6.8221072E7
19.312846,-6.8308192E7
19.321185,-6.8419392E7
19.329524,-6.8451184E7
19.337862,-6.8536704E7
19.346201,-6.8618016E7
19.35454,-6.8707568E7
19.362879,-6.8792296E7
19.371218,-6.8858752E7
19.379557,-6.896656E7
19.387895999999998,-6.9072352E7
19.396235,-6.9164632E7
19.404574,-6.9285368E7
19.412912000000002,-6.939456E7
19.421251,-6.9477224E7
19.42959,-6.9542016E7
19.437929000000004,-6.9686472E7
19.446268000000003,-6.977368E7
19.454607000000003,-6.9896528E7
19.462946000000002,-6.998568E7
19.471285,-7.0111048E7
19.479624,-7.0207224E7
19.487962000000003,-7.0312384E7
19.496301000000003,-7.0436272E7
19.504640000000002,-7.0488864E7
19.512979,-7.0627744E7
19.521318,-7.0751448E7
19.529657,-7.0837376E7
19.537996000000003,-7.090188E7
19.546335000000003,-7.099968E7
19.554673,-7.1030912E7
19.563012,-7.1129224E7
19.571351,-7.1193104E7
19.57969,-7.1222952E7
19.588029000000002,-7.1306624E7
19.596368000000002,-7.1392184E7
19.604707,-7.15004E7
19.613046,-7.1584224E7
19.621385,-7.1711024E7
19.629723000000002,-7.1828224E7
19.638062,-7.1944632E7
19.646401,-7.1958656E7
19.65474,-7.2072E7
19.663079,-7.2168552E7
19.671418,-7.2214632E7
19.679757,-7.217916E7
19.688096,-7.2136896E7
19.696434,-7.19098E7
19.704773,-7.1664208E7
19.713112,-7.136344E7
19.721451,-7.103604E7
19.72979,-7.0717808E7
19.738129,-7.0327952E7
19.746468,-6.9932272E7
19.754807,-6.952824E7
19.763146,-6.9213728E7
19.771484,-6.8897088E7
19.779823000000004,-6.8668672E7
19.788162000000003,-6.845708E7
19.796501000000003,-6.8268848E7
19.804840000000002,-6.8155216E7
19.813179,-6.8101616E7
19.821518,-6.80644E7
19.829856000000003,-6.8114912E7
19.838195000000002,-6.8099712E7
19.846534000000002,-6.8151888E7
19.854873,-6.816176E7
19.863212,-6.814552E7
19.871551,-6.8222768E7
19.879890000000003,-6.8254368E7
19.888229000000003,-6.8299888E7
19.896568000000002,-6.8372048E7
19.904907,-6.8507696E7
19.913245,-6.8592016E7
19.921584000000003,-6.870564E7
19.929923000000002,-6.8824352E7
19.938262,-6.8919232E7
19.946601,-6.905788E7
19.95494,-6.9160432E7
19.963278000000003,-6.922512E7
19.971617000000002,-6.93108E7
19.979956,-6.9325272E7
19.988295,-6.9412672E7
19.996634,-6.9383776E7
20.004973,-6.938268E7
20.013312,-6.9384248E7
20.021651000000002,-6.9419296E7
20.02999,-6.9413312E7
20.038328,-6.9456416E7
20.046667,-6.9535264E7
20.055006,-6.9559472E7
20.063345,-6.9603456E7
20.071684,-6.9667888E7
20.080023,-6.9716472E7
20.088362,-6.9771376E7
20.096701,-6.9817704E7
20.105038999999998,-6.9927864E7
20.113379,-6.9984928E7
20.121717,-7.0094624E7
20.130056,-7.0232872E7
20.138395,-7.0278224E7
20.146734,-7.0413672E7
20.155073,-7.0459768E7
20.163412,-7.0579736E7
20.171751000000004,-7.063548E7
20.180089000000002,-7.0741024E7
20.188428000000002,-7.0798336E7
20.196767,-7.0900968E7
20.205106,-7.0963976E7
20.213445000000004,-7.1050992E7
20.221784000000003,-7.113556E7
20.230123000000003,-7.1250896E7
20.238462000000002,-7.1349976E7
20.246801,-7.1426952E7
20.255139000000003,-7.1501008E7
20.263478000000003,-7.158728E7
20.271817000000002,-7.1630576E7
20.280156,-7.1710744E7
20.288495,-7.1731648E7
20.296834,-7.179588E7
20.305173,-7.183416E7
20.313511000000002,-7.1857872E7
20.32185,-7.1908544E7
20.330189,-7.2011552E7
20.338528,-7.2082704E7
20.346867,-7.2217424E7
20.355206,-7.23216E7
20.363545000000002,-7.2383248E7
20.371884,-7.2507024E7
20.380223,-7.2549696E7
20.388561,-7.2581368E7
20.3969,-7.2609176E7
20.405239,-7.2633552E7
20.413578,-7.263032E7
20.421917,-7.265652E7
20.430256,-7.2598128E7
20.438595,-7.2372304E7
20.446934,-7.2096272E7
20.455272,-7.1874216E7
20.463611,-7.1528272E7
20.47195,-7.113352E7
20.480289,-7.0747232E7
20.488628,-7.025224E7
20.496966999999998,-6.9909512E7
20.505306,-6.9556544E7
20.513645,-6.9291248E7
20.521984,-6.9123808E7
20.530322,-6.892752E7
20.538661,-6.8790288E7
20.547000000000004,-6.866828E7
20.555339000000004,-6.862176E7
20.563678000000003,-6.8579984E7
20.572017000000002,-6.853944E7
20.580356000000002,-6.8542192E7
20.588695,-6.8539472E7
20.597033000000003,-6.8520264E7
20.605372000000003,-6.8486096E7
20.613711000000002,-6.8507424E7
20.62205,-6.8485744E7
20.630389,-6.8557016E7
20.638728,-6.8555264E7
20.647067,-6.8621496E7
20.655406000000003,-6.874504E7
20.663745000000002,-6.8828616E7
20.672083,-6.8909304E7
20.680422,-6.8975392E7
20.688761,-6.9033888E7
20.697100000000002,-6.9061336E7
20.705439000000002,-6.9145856E7
20.713778,-6.9151384E7
20.722117,-6.9219024E7
20.730456,-6.9207736E7
20.738794000000002,-6.9203936E7
20.747133,-6.9141784E7
20.755472,-6.9161928E7
20.763811,-6.9135968E7
20.77215,-6.9121776E7
20.780489,-6.9151584E7
20.788828,-6.9187568E7
20.797167,-6.9224144E7
20.805506,-6.9315264E7
20.813844,-6.9427592E7
20.822183,-6.9542976E7
20.830522,-6.9605984E7
20.838860999999998,-6.9728784E7
20.8472,-6.9800768E7
20.855539,-6.9890024E7
20.863878,-7.0002352E7
20.872215999999998,-7.0115424E7
20.880555,-7.0239152E7
20.888894000000004,-7.0335968E7
20.897233000000003,-7.0472016E7
20.905572000000003,-7.0593896E7
20.913911000000002,-7.0757384E7
20.922250000000002,-7.0885848E7
20.930589,-7.0971104E7
20.938927000000003,-7.1048416E7
20.947266000000003,-7.11744E7
20.955605000000002,-7.1276992E7
20.963944,-7.1338192E7
20.972283,-7.1475984E7
20.980622,-7.1574E7
20.988961000000003,-7.1678E7
20.997300000000003,-7.1804192E7
21.005639000000002,-7.1894544E7
21.013977,-7.1977408E7
21.022316,-7.197228E7
21.030655000000003,-7.2049768E7
21.038994000000002,-7.2123392E7
21.047333000000002,-7.2190144E7
21.055672,-7.2260176E7
21.064011,-7.2349088E7
21.07235,-7.2400544E7
21.080688000000002,-7.246792E7
21.089027,-7.2527248E7
21.097366,-7.2498048E7
21.105705,-7.2349072E7
21.114044,-7.216072E7
21.122383,-7.1908608E7
21.130722,-7.1637984E7
21.139061,-7.1317952E7
21.147399,-7.0986304E7
21.155738,-7.061572E7
21.164077,-7.0264672E7
21.172416,-6.9896E7
21.180755,-6.965696E7
21.189094,-6.9387496E7
21.197433,-6.9162808E7
21.205772,-6.903272E7
21.214111,-6.8983816E7
21.222449,-6.8879624E7
21.230788,-6.8806336E7
21.239127,-6.8764688E7
21.247466,-6.879072E7
21.255805000000002,-6.8806096E7
21.264144,-6.8834032E7
21.272483,-6.8901776E7
21.280822000000004,-6.9009552E7
21.289160000000003,-6.9101248E7
21.297499000000002,-6.9175472E7
21.305838,-6.9238784E7
21.314177,-6.934704E7
21.322516000000004,-6.9426256E7
21.330855000000003,-6.956592E7
21.339194000000003,-6.9651512E7
21.347533000000002,-6.9732232E7
21.355872,-6.9787472E7
21.364211,-6.988524E7
21.372549000000003,-6.989772E7
21.380888000000002,-6.990192E7
21.389227,-6.9968632E7
21.397566,-6.9941056E7
21.405905,-7.000188E7
21.414244,-6.998864E7
21.422582000000002,-7.002764E7
21.430922000000002,-7.00446E7
21.43926,-7.0050224E7
21.447599,-7.0050272E7
21.455938,-7.0086128E7
21.464277,-7.0096448E7
21.472616000000002,-7.0096352E7
21.480955,-7.0180704E7
21.489294,-7.0243872E7
21.497632,-7.0264832E7
21.505971,-7.0311424E7
21.514310000000002,-7.0386768E7
21.522649,-7.04508E7
21.530988,-7.045508E7
21.539327,-7.0496832E7
21.547666,-7.0521136E7
21.556005,-7.0558544E7
21.564344,-7.0662352E7
21.572682,-7.0689088E7
21.581021,-7.0793152E7
21.58936,-7.087652E7
21.597699,-7.099048E7
21.606037999999998,-7.1096992E7
21.614376999999998,-7.1210592E7
21.622716,-7.1237616E7
21.631055000000003,-7.137448E7
21.639393000000002,-7.1439176E7
21.647732,-7.1513928E7
21.656071,-7.1598584E7
21.664410000000004,-7.16516E7
21.672749000000003,-7.175784E7
21.681088000000003,-7.1868208E7
21.689427000000002,-7.1993616E7
21.697766,-7.2072816E7
21.706104000000003,-7.2147136E7
21.714443000000003,-7.220672E7
21.722782000000002,-7.2225E7
21.731121,-7.2184312E7
21.73946,-7.2029336E7
21.747799,-7.1840552E7
21.756138,-7.1591696E7
21.764477000000003,-7.1271472E7
21.772815,-7.0921184E7
21.781154,-7.0463432E7
21.789493,-7.0029384E7
21.797832,-6.9659056E7
21.806171000000003,-6.9275264E7
21.814510000000002,-6.9001768E7
21.822849,-6.877808E7
21.831188,-6.8610064E7
21.839527,-6.8485384E7
21.847866,-6.8371696E7
21.856204,-6.8306392E7
21.864543,-6.8246976E7
21.872882,-6.82212E7
21.881221,-6.8277272E7
21.88956,-6.8275216E7
21.897899,-6.831464E7
21.906238,-6.8409312E7
21.914576,-6.8476304E7
21.922915,-6.8607752E7
21.931254,-6.8671168E7
21.939593,-6.8772832E7
21.947931999999998,-6.8878624E7
21.956271,-6.8994952E7
21.96461,-6.9059896E7
21.972949,-6.913424E7
21.981287000000002,-6.9228808E7
21.989626,-6.934048E7
21.997965000000004,-6.9374288E7
22.006304000000004,-6.9522048E7
22.014643000000003,-6.9617432E7
22.022982000000003,-6.9683104E7
22.031321000000002,-6.9743632E7
22.03966,-6.9747584E7
22.047999,-6.971544E7
22.056338000000004,-6.9850368E7
22.064676000000002,-6.9849656E7
22.073015,-6.9842608E7
22.081354,-6.9869536E7
22.089693,-6.9895696E7
22.098032000000003,-6.9943016E7
22.106371000000003,-6.9952288E7
22.114710000000002,-7.0032272E7
22.123048,-7.0053488E7
22.131387,-7.012296E7
22.139726,-7.0161304E7
22.148065000000003,-7.02116E7
22.156404000000002,-7.027288E7
22.164743,-7.0337832E7
22.173082,-7.0399536E7
22.181421,-7.0522928E7
22.18976,-7.065012E7
22.198099,-7.0720712E7
22.206437,-7.0798816E7
22.214776,-7.087752E7
22.223115,-7.0984744E7
22.231454,-7.1072704E7
22.239793,-7.1143808E7
22.248132000000002,-7.125408E7
22.25647,-7.1341184E7
22.264809,-7.1434048E7
22.273148,-7.1490384E7
22.281487,-7.1615584E7
22.289826,-7.174124E7
22.298165,-7.1878432E7
22.306504,-7.1961056E7
22.314843,-7.206656E7
22.323182,-7.2120432E7
22.331519999999998,-7.2207712E7
22.339859,-7.2208712E7
22.348198000000004,-7.2071456E7
22.356537000000003,-7.1893168E7
22.364876000000002,-7.1580696E7
22.373215000000002,-7.1297232E7
22.381554,-7.0873888E7
22.389893000000004,-7.0431168E7
22.398232000000004,-7.0007568E7
22.406570000000002,-6.9561568E7
22.414909,-6.924284E7
22.423248,-6.8955728E7
22.431587,-6.8741048E7
22.439926000000003,-6.8516224E7
22.448265000000003,-6.837844E7
22.456604000000002,-6.8259736E7
22.464943,-6.8196304E7
22.473281,-6.8174104E7
22.481620000000003,-6.8139864E7
22.489959000000002,-6.8148208E7
22.498298000000002,-6.8189936E7
22.506637,-6.8154224E7
22.514976,-6.812768E7
22.523315,-6.8102696E7
22.531654,-6.8135016E7
22.539993000000003,-6.8231656E7
22.548331,-6.8302608E7
22.55667,-6.8403408E7
22.565009,-6.852904E7
22.573348,-6.8682896E7
22.581687000000002,-6.8724144E7
22.590026,-6.883328E7
22.598365,-6.8959552E7
22.606704,-6.90332E7
22.615042,-6.9107376E7
22.623381,-6.9157896E7
22.63172,-6.9127136E7
22.640059,-6.9149416E7
22.648398,-6.9060864E7
22.656737,-6.9063576E7
22.665076,-6.9059376E7
22.673415,-6.9019472E7
22.681753999999998,-6.9002688E7
22.690092,-6.90194E7
22.698431,-6.9022216E7
22.70677,-6.89708E7
22.715108999999998,-6.9013168E7
22.723448,-6.9053896E7
22.731787000000004,-6.9076944E7
22.740126000000004,-6.9133696E7
22.748465000000003,-6.9207712E7
22.756803,-6.9288968E7
22.765142,-6.9366232E7
22.773481000000004,-6.9403208E7
22.781820000000003,-6.9469296E7
22.790159000000003,-6.955984E7
22.798498000000002,-6.9688864E7
22.806837,-6.9741176E7
22.815175000000004,-6.982912E7
22.823514000000003,-6.9884096E7
22.831853000000002,-6.9929576E7
22.840192000000002,-7.0044824E7
22.848531,-7.0089656E7
22.85687,-7.0228048E7
22.865209,-7.0298992E7
22.873548000000003,-7.0388816E7
22.881886,-7.0506088E7
22.890225,-7.0605248E7
22.898564,-7.06574E7
22.906903,-7.0768112E7
22.915242,-7.0855672E7
22.923581000000002,-7.0900536E7
22.93192,-7.095748E7
22.940259,-7.099824E7
22.948598,-7.0901408E7
22.956937,-7.0788464E7
22.965275000000002,-7.0602592E7
22.973614,-7.0307904E7
22.981953,-6.984376E7
22.990292,-6.9300432E7
22.998631,-6.8768752E7
23.00697,-6.8281496E7
23.015309,-6.7899136E7
23.023648,-6.7533472E7
23.031986,-6.7209832E7
23.040325,-6.6980488E7
23.048664,-6.6832392E7
23.057002999999998,-6.6645932E7
23.065342,-6.6485048E7
23.073681,-6.6452328E7
23.08202,-6.6363224E7
23.090358000000002,-6.6285996E7
23.098697,-6.622286E7
23.107036000000004,-6.6220832E7
23.115375000000004,-6.6207764E7
23.123714000000003,-6.6169224E7
23.132053000000003,-6.6153252E7
23.140392000000002,-6.6224912E7
23.148731,-6.621718E7
23.15707,-6.6274776E7
23.165408000000003,-6.6290016E7
23.173747000000002,-6.6341296E7
23.182086,-6.6460724E7
23.190425,-6.6493424E7
23.198764,-6.6547788E7
23.207103,-6.6674972E7
23.215442000000003,-6.6751592E7
23.223781000000002,-6.687078E7
23.232119,-6.6894716E7
23.240458,-6.6942472E7
23.248797,-6.6948492E7
23.257136000000003,-6.6968588E7
23.265475000000002,-6.6884204E7
23.273814,-6.6857104E7
23.282153,-6.6855672E7
23.290492,-6.6772312E7
23.298830000000002,-6.6777992E7
23.30717,-6.6772256E7
23.315508,-6.6764724E7
23.323847,-6.6747764E7
23.332186,-6.678428E7
23.340525,-6.6865548E7
23.348864,-6.68958E7
23.357203000000002,-6.6965008E7
23.365542,-6.702774E7
23.37388,-6.7100312E7
23.382219,-6.7179728E7
23.390558,-6.7279632E7
23.398896999999998,-6.7382912E7
23.407236,-6.7447936E7
23.415575,-6.7570744E7
23.423914,-6.7616544E7
23.432253,-6.7689744E7
23.440590999999998,-6.7784784E7
23.448930000000004,-6.7787808E7
23.457269000000004,-6.7884672E7
23.465608000000003,-6.7970016E7
23.473947000000003,-6.8067552E7
23.482286000000002,-6.8164472E7
23.490625,-6.8267576E7
23.498964,-6.8393648E7
23.507303000000004,-6.8514592E7
23.515642000000003,-6.8647344E7
23.52398,-6.8726904E7
23.532319,-6.8831672E7
23.540658,-6.8899016E7
23.548997000000004,-6.8916216E7
23.557336000000003,-6.8837856E7
23.565675000000002,-6.8755016E7
23.574014000000002,-6.846176E7
23.582352,-6.8123544E7
23.590691000000003,-6.7654728E7
23.599030000000003,-6.7128304E7
23.607369000000002,-6.669312E7
23.615708,-6.6217568E7
23.624047,-6.5811456E7
23.632386,-6.5445968E7
23.640725,-6.5101916E7
23.649063,-6.4788096E7
23.657402,-6.4782112E7
23.665741,-6.4588016E7
23.67408,-6.4649232E7
23.682419,-6.4503852E7
23.690758,-6.44363E7
23.699097000000002,-6.4337144E7
23.707436,-6.4267548E7
23.715774,-6.4159328E7
23.724114,-6.4110696E7
23.732452,-6.3993432E7
23.740791,-6.4014924E7
23.74913,-6.3884216E7
23.757469,-6.3870036E7
23.765808,-6.3828608E7
23.774147,-6.3819512E7
23.782486,-6.3838248E7
23.790824,-6.3825496E7
23.799163,-6.3885096E7
23.807502,-6.3966608E7
23.815841,-6.4076036E7
23.824180000000002,-6.415072E7
23.832519,-6.4226608E7
23.840858000000004,-6.4279256E7
23.849197000000004,-6.4291544E7
23.857535000000002,-6.4339608E7
23.865874,-6.4292416E7
23.874213,-6.4228448E7
23.882552,-6.4236748E7
23.890891000000003,-6.4195468E7
23.899230000000003,-6.4168292E7
23.907569000000002,-6.4157452E7
23.915908,-6.4124232E7
23.924247,-6.4084296E7
23.932585000000003,-6.4198968E7
23.940924000000003,-6.4167484E7
23.949263000000002,-6.4266784E7
23.957602,-6.4282744E7
23.965941,-6.43844E7
23.97428,-6.4472476E7
23.982619,-6.456362E7
23.990958000000003,-6.4643172E7
23.999297000000002,-6.4734216E7
24.007635,-6.4840496E7
24.015974,-6.4939808E7
24.024313,-6.4982648E7
24.032652000000002,-6.507494E7
24.040991,-6.511076E7
24.04933,-6.5181408E7
24.057669,-6.523652E7
24.066007,-6.526506E7
24.074347,-6.5392408E7
24.082685,-6.5487592E7
24.091024,-6.5643384E7
24.099363,-6.5674992E7
24.107702,-6.578048E7
24.116041,-6.58866E7
24.12438,-6.5986288E7
24.132718,-6.6085972E7
24.141058,-6.6209808E7
24.149396,-6.6278768E7
24.157735,-6.6301676E7
24.166074,-6.6426912E7
24.174412999999998,-6.6458132E7
24.182752,-6.644042E7
24.191091,-6.6407224E7
24.199430000000003,-6.6239096E7
24.207768,-6.5989804E7
24.216107,-6.5618804E7
24.224446000000004,-6.5189696E7
24.232785000000003,-6.4773228E7
24.241124000000003,-6.4287584E7
24.249463000000002,-6.3820408E7
24.257802,-6.342328E7
24.266141,-6.3005388E7
24.27448,-6.2631676E7
24.282819000000003,-6.2345216E7
24.291157000000002,-6.2246528E7
24.299496,-6.204002E7
24.307835,-6.2034576E7
24.316174,-6.1886608E7
24.324513000000003,-6.1898348E7
24.332852000000003,-6.177018E7
24.34119,-6.1665316E7
24.349529,-6.1595672E7
24.357868,-6.150962E7
24.366207000000003,-6.1491768E7
24.374546000000002,-6.1412696E7
24.382885,-6.1307432E7
24.391224,-6.1287004E7
24.399563,-6.1254824E7
24.407902,-6.1397628E7
24.416241,-6.1432856E7
24.424579,-6.1623232E7
24.432918,-6.1674796E7
24.441257,-6.183164E7
24.449596,-6.186752E7
24.457935,-6.1962376E7
24.466274,-6.2100144E7
24.474613,-6.219052E7
24.482952,-6.2217572E7
24.49129,-6.2301272E7
24.499629,-6.2297816E7
24.507967999999998,-6.237074E7
24.516307,-6.2400852E7
24.524646,-6.2427424E7
24.532985,-6.2403048E7
24.541324,-6.240886E7
24.549662,-6.2451896E7
24.558001000000004,-6.2470532E7
24.566340000000004,-6.2542972E7
24.574679000000003,-6.2579752E7
24.583018000000003,-6.2680196E7
24.591357000000002,-6.2729336E7
24.599696,-6.2827016E7
24.608035,-6.3000156E7
24.616374000000004,-6.3054476E7
24.624712000000002,-6.3121616E7
24.633051000000002,-6.3301788E7
24.64139,-6.338274E7
24.649729,-6.3544E7
24.658068,-6.3683296E7
24.666407000000003,-6.3851324E7
24.674746000000003,-6.3922436E7
24.683085000000002,-6.3791424E7
24.691424,-6.379928E7
24.699763,-6.3793376E7
24.708101000000003,-6.3594384E7
24.716440000000002,-6.3676592E7
24.724779,-6.3665456E7
24.733118,-6.3767624E7
24.741457,-6.3745916E7
24.749796,-6.388424E7
24.758135,-6.394704E7
24.766474000000002,-6.4012288E7
24.774812,-6.414426E7
24.783151,-6.4215512E7
24.79149,-6.4288412E7
24.799829,-6.4406824E7
24.808168000000002,-6.4656696E7
24.816507,-6.4695656E7
24.824846,-6.4855528E7
24.833185,-6.4880556E7
24.841523,-6.4971384E7
24.849862,-6.4946192E7
24.858201,-6.4979144E7
24.86654,-6.4985224E7
24.874879,-6.4715632E7
24.883218,-6.444844E7
24.891557,-6.3995584E7
24.899895,-6.3612284E7
24.908235,-6.3062864E7
24.916573000000003,-6.2710848E7
24.924912000000003,-6.221564E7
24.933251000000002,-6.1802732E7
24.94159,-6.1381488E7
24.949929,-6.1064048E7
24.958268000000004,-6.0857384E7
24.966607000000003,-6.0641712E7
24.974945,-6.056844E7
24.983284,-6.0368628E7
24.991623,-6.0419176E7
24.999962000000004,-6.0305428E7
25.008301000000003,-6.0370224E7
25.016640000000002,-6.0306576E7
25.024979000000002,-6.037368E7
25.033318,-6.0236624E7
25.041657,-6.0180896E7
25.049995000000003,-6.012206E7
25.058334000000002,-6.0108352E7
25.066673,-6.0074116E7
25.075012,-6.0094584E7
25.083351,-6.0099508E7
25.09169,-6.0155744E7
25.100029000000003,-6.0193192E7
25.108367,-6.0263792E7
25.116706,-6.0359808E7
25.125045,-6.044472E7
25.133384,-6.0505816E7
25.141723,-6.0695928E7
25.150062000000002,-6.0779568E7
25.158401,-6.089088E7
25.16674,-6.1078232E7
25.175079,-6.1187552E7
25.183417,-6.1326696E7
25.191756,-6.1426224E7
25.200095,-6.1544796E7
25.208434,-6.1686512E7
25.216773,-6.1785888E7
25.225112,-6.188796E7
25.233451,-6.205284E7
25.241789999999998,-6.2142792E7
25.250129,-6.22951E7
25.258467,-6.2398584E7
25.266806,-6.250952E7
25.275145,-6.265436E7
25.283483999999998,-6.285234E7
25.291823000000004,-6.2944384E7
25.300162000000004,-6.3084592E7
25.308501000000003,-6.3017484E7
25.316840000000003,-6.316014E7
25.325179000000002,-6.3103256E7
25.333517000000004,-6.3251508E7
25.341856000000003,-6.3448272E7
25.350195000000003,-6.358122E7
25.358534000000002,-6.3716756E7
25.366873000000002,-6.38638E7
25.375212,-6.4027524E7
25.383551,-6.4166E7
25.391889000000003,-6.4345132E7
25.400228000000002,-6.4492764E7
25.408567,-6.4551996E7
25.416906,-6.4709684E7
25.425245,-6.4582424E7
25.433584,-6.4700616E7
25.441923000000003,-6.455606E7
25.450262000000002,-6.4677184E7
25.4586,-6.4688064E7
25.466939,-6.4873184E7
25.475278,-6.4962552E7
25.483617000000002,-6.5085108E7
25.491956000000002,-6.5162056E7
25.500295,-6.5288488E7
25.508634,-6.533602E7
25.516973,-6.5364424E7
25.525312,-6.5387408E7
25.53365,-6.5340128E7
25.541989,-6.5240884E7
25.550328,-6.4964968E7
25.558667,-6.4489412E7
25.567006,-6.3994444E7
25.575345,-6.3552504E7
25.583684,-6.3164648E7
25.592022,-6.2829112E7
25.600361,-6.251092E7
25.6087,-6.2263496E7
25.617039,-6.2036608E7
25.625378,-6.1850152E7
25.633717,-6.1727044E7
25.642056,-6.1592028E7
25.650395,-6.1483216E7
25.658734,-6.1616104E7
25.667073000000002,-6.1544904E7
25.675411000000004,-6.1644236E7
25.683750000000003,-6.1637476E7
25.692089000000003,-6.161884E7
25.700428000000002,-6.1572712E7
25.708767,-6.1544984E7
25.717106,-6.1553508E7
25.725445,-6.1572824E7
25.733783000000003,-6.155962E7
25.742122000000002,-6.1575444E7
25.750461,-6.1603868E7
25.7588,-6.1646956E7
25.767139,-6.1776424E7
25.775478000000003,-6.1909408E7
25.783817000000003,-6.195672E7
25.792156000000002,-6.207264E7
25.800494,-6.221842E7
25.808833,-6.2327864E7
25.817172000000003,-6.2411924E7
25.825511000000002,-6.2483148E7
25.83385,-6.2575752E7
25.842189,-6.2615748E7
25.850528,-6.2692528E7
25.858867,-6.2708084E7
25.867206,-6.273486E7
25.875544,-6.2816832E7
25.883883,-6.2849492E7
25.892222,-6.2959808E7
25.900561,-6.30284E7
25.9089,-6.3079404E7
25.917239,-6.3210192E7
25.925578,-6.3305816E7
25.933917,-6.3402588E7
25.942255,-6.3510664E7
25.950594,-6.3657856E7
25.958933,-6.379724E7
25.967272,-6.385044E7
25.975611,-6.3968088E7
25.98395,-6.40832E7
25.992289,-6.4199976E7
26.000628,-6.4306704E7
26.008967,-6.4427952E7
26.017305999999998,-6.4552752E7
26.025644000000003,-6.4427364E7
26.033983000000003,-6.45497E7
26.042322000000002,-6.4484968E7
26.050661,-6.4635856E7
26.059,-6.4720376E7
26.067339000000004,-6.4855136E7
26.075678000000003,-6.493332E7
26.084017000000003,-6.5012492E7
26.092355,-6.5081396E7
26.100694,-6.5209284E7
26.109033000000004,-6.5331328E7
26.117372000000003,-6.5427364E7
26.125711000000003,-6.5488088E7
26.134050000000002,-6.5609228E7
26.142389,-6.5687992E7
26.150728,-6.578292E7
26.159067,-6.5905632E7
26.167405000000002,-6.6000032E7
26.175744,-6.5818892E7
26.184083,-6.5899416E7
26.192422,-6.5834424E7
26.200761,-6.5919296E7
26.2091,-6.6019896E7
26.217439000000002,-6.6057816E7
26.225778000000002,-6.6197976E7
26.234116,-6.6281376E7
26.242455,-6.6402264E7
26.250794,-6.6492524E7
26.259133000000002,-6.661312E7
26.267472,-6.6666128E7
26.275811,-6.6686936E7
26.28415,-6.6628196E7
26.292489,-6.6523944E7
26.300827,-6.6334296E7
26.309166,-6.5868232E7
26.317505,-6.542444E7
26.325844,-6.4974928E7
26.334183,-6.4543872E7
26.342522,-6.4183624E7
26.350861,-6.38409E7
26.3592,-6.3517672E7
26.367538,-6.3219448E7
26.375877,-6.2935616E7
26.384216,-6.267852E7
26.392555,-6.240392E7
26.400894000000005,-6.2250444E7
26.409233000000004,-6.2234504E7
26.417572000000003,-6.2069392E7
26.425910000000002,-6.2109984E7
26.434250000000002,-6.1980376E7
26.442588,-6.202706E7
26.450927000000004,-6.1943108E7
26.459266000000003,-6.1892912E7
26.467605000000002,-6.174476E7
26.475944000000002,-6.1685792E7
26.484283,-6.1653984E7
26.492622,-6.1600504E7
26.500960000000003,-6.1577072E7
26.509299000000002,-6.1535088E7
26.517638,-6.1608964E7
26.525977,-6.1766592E7
26.534316,-6.1942032E7
26.542655,-6.2151144E7
26.550994000000003,-6.2170976E7
26.559333000000002,-6.2214196E7
26.567671,-6.2297232E7
26.57601,-6.2319488E7
26.584349,-6.2360372E7
26.592688000000003,-6.2440172E7
26.601027000000002,-6.2489836E7
26.609366,-6.2469976E7
26.617705,-6.2488576E7
26.626044,-6.2472176E7
26.634383,-6.2494984E7
26.642721,-6.2530084E7
26.65106,-6.2553128E7
26.659399,-6.2630168E7
26.667738,-6.2682556E7
26.676077,-6.2705244E7
26.684416,-6.2845108E7
26.692755,-6.2894552E7
26.701094,-6.2960248E7
26.709433,-6.3018448E7
26.717771,-6.3095304E7
26.72611,-6.3176084E7
26.734448999999998,-6.3296624E7
26.742788,-6.33831E7
26.751127,-6.3416288E7
26.759465999999996,-6.3571512E7
26.767805000000003,-6.3707048E7
26.776144000000002,-6.3830008E7
26.784482000000004,-6.3914064E7
26.792821000000004,-6.3793896E7
26.801160000000003,-6.3943936E7
26.809499000000002,-6.3845528E7
26.817838000000002,-6.3892784E7
26.826177,-6.4000256E7
26.834516,-6.408778E7
26.842855,-6.4229412E7
26.851193000000002,-6.4336288E7
26.859532,-6.4497704E7
26.867871,-6.4561324E7
26.87621,-6.4762976E7
26.884549,-6.4790788E7
26.892888,-6.4899904E7
26.901227,-6.4974328E7
26.909565999999998,-6.5067872E7
26.917905000000005,-6.52149E7
26.926243,-6.5216672E7
26.934582,-6.5320832E7
26.942921,-6.5195908E7
26.951259999999998,-6.5248788E7
26.959599000000004,-6.5167656E7
26.967938000000004,-6.530688E7
26.976277000000003,-6.53499E7
26.984616000000003,-6.5446068E7
26.992955000000002,-6.553396E7
27.001293000000004,-6.5638592E7
27.009632000000003,-6.5734464E7
27.017971000000003,-6.5881628E7
27.026310000000002,-6.5941324E7
27.034649,-6.600928E7
27.042988,-6.6149604E7
27.051326000000003,-6.6230248E7
27.059665000000003,-6.6181592E7
27.068004000000002,-6.6137152E7
27.076343,-6.5916324E7
27.084682,-6.5561772E7
27.093021,-6.519972E7
27.10136,-6.4869288E7
27.109699,-6.4567196E7
27.118038,-6.4266348E7
27.126376,-6.3912096E7
27.134715,-6.3687292E7
27.143054,-6.3435776E7
27.151393000000006,-6.3246576E7
27.159732000000005,-6.3087648E7
27.168071000000005,-6.2876352E7
27.176410000000004,-6.2747112E7
27.184749000000004,-6.2707992E7
27.193087000000006,-6.2560176E7
27.201426000000005,-6.2518572E7
27.209765000000004,-6.24414E7
27.218104000000004,-6.2344144E7
27.226443000000003,-6.2467808E7
27.234782000000003,-6.2399392E7
27.243121000000002,-6.2518496E7
27.25146,-6.2524428E7
27.259799,-6.2467084E7
27.268137000000003,-6.2437812E7
27.276476000000002,-6.2463816E7
27.284815000000002,-6.2517472E7
27.293154,-6.25372E7
27.301493,-6.2605148E7
27.309832,-6.2636464E7
27.318171,-6.269258E7
27.32651,-6.2717272E7
27.334848,-6.2793596E7
27.343187,-6.2893244E7
27.351526,-6.2903152E7
27.359865,-6.2952464E7
27.368204,-6.2986644E7
27.376542999999998,-6.300156E7
27.384881999999998,-6.3025808E7
27.393220999999997,-6.3026528E7
27.401560000000003,-6.3054312E7
27.409899000000003,-6.3015744E7
27.418236999999998,-6.3069928E7
27.426575999999997,-6.3067944E7
27.434914999999997,-6.3123816E7
27.443254000000003,-6.3174904E7
27.451593000000003,-6.3202692E7
27.459932000000002,-6.3206584E7
27.468271,-6.3334584E7
27.476608999999996,-6.338154E7
27.484948000000003,-6.3485936E7
27.493287000000002,-6.356516E7
27.501626,-6.3649768E7
27.509965,-6.3729128E7
27.518304,-6.3783232E7
27.526643,-6.3892352E7
27.534982,-6.3963608E7
27.543321000000006,-6.4098376E7
27.551659,-6.4176836E7
27.559998,-6.426958E7
27.568337,-6.4304732E7
27.576676,-6.4397904E7
27.585015,-6.4506144E7
27.593353999999998,-6.4612544E7
27.601692999999997,-6.4660976E7
27.610031,-6.4783176E7
27.61837,-6.489748E7
27.626708999999998,-6.5007016E7
27.635048000000005,-6.5020612E7
27.643387000000004,-6.4838856E7
27.651726000000004,-6.4989912E7
27.660065000000003,-6.4854904E7
27.668404000000002,-6.4904672E7
27.676743000000002,-6.4968352E7
27.685082,-6.5025144E7
27.693420000000003,-6.512074E7
27.701759000000003,-6.5186112E7
27.710098000000002,-6.5281636E7
27.718437,-6.541218E7
27.726776,-6.5524776E7
27.735115000000008,-6.5606104E7
27.743454000000007,-6.5678396E7
27.751793000000006,-6.5801076E7
27.760131,-6.5838204E7
27.76847,-6.5943416E7
27.776809,-6.6069052E7
27.785148,-6.6136544E7
27.793487,-6.6245392E7
27.801826,-6.6281152E7
27.810164999999998,-6.6443164E7
27.818503999999997,-6.6507508E7
27.826842000000006,-6.6633464E7
27.835181000000006,-6.6664512E7
27.843520000000005,-6.66924E7
27.851859000000005,-6.6675536E7
27.860198000000004,-6.6356648E7
27.868537000000003,-6.6162932E7
27.876876000000003,-6.5681924E7
27.885215000000002,-6.53739E7
27.893554,-6.5074368E7
27.901891999999997,-6.4847528E7
27.910230999999996,-6.4583768E7
27.918569999999995,-6.4383828E7
27.926909000000002,-6.4095064E7
27.935248,-6.3957524E7
27.943587,-6.3724456E7
27.951926,-6.3523912E7
27.960264000000002,-6.3409164E7
27.968603,-6.3248424E7
27.976942,-6.3362288E7
27.985281,-6.3302312E7
27.99362,-6.348898E7
28.001959,-6.3429104E7
28.010298,-6.3472648E7
28.018637,-6.3429384E7
28.026975,-6.3428672E7
28.035314000000007,-6.3388608E7
28.043653000000006,-6.3413952E7
28.051992000000006,-6.3389E7
28.060331000000005,-6.3402756E7
28.068670000000004,-6.3417164E7
28.077009000000004,-6.3457128E7
28.085348000000003,-6.3520876E7
28.093685999999998,-6.3597008E7
28.102024999999998,-6.3616384E7
28.110363999999997,-6.3643868E7
28.118703000000004,-6.3752244E7
28.127042000000003,-6.3768104E7
28.135381000000002,-6.3778976E7
28.143720000000002,-6.3846584E7
28.152059,-6.3831944E7
28.160398,-6.3845552E7
28.168737,-6.391136E7
28.177075000000002,-6.3910696E7
28.185414,-6.3894644E7
28.193753,-6.3910024E7
28.202092,-6.3956464E7
28.210431,-6.396504E7
28.218770000000006,-6.3968544E7
28.227109000000006,-6.3999344E7
28.235447,-6.4023944E7
28.243786,-6.4097944E7
28.252125,-6.4104288E7
28.260464,-6.4222712E7
28.268803,-6.4221404E7
28.277141999999998,-6.4337092E7
28.285480999999997,-6.4385176E7
28.293819999999997,-6.4434232E7
28.302158,-6.4557608E7
28.310497000000005,-6.4636936E7
28.318836000000005,-6.4658488E7
28.327175000000004,-6.4789592E7
28.335514000000003,-6.488712E7
28.343853000000003,-6.4951432E7
28.352192000000002,-6.5017764E7
28.360531,-6.5094192E7
28.36887,-6.5203384E7
28.377209,-6.52592E7
28.385546999999995,-6.538106E7
28.393885999999995,-6.5463344E7
28.402224999999994,-6.5598372E7
28.410564000000008,-6.5694568E7
28.418903000000007,-6.5771208E7
28.427242000000007,-6.5863304E7
28.435581000000006,-6.593112E7
28.443919,-6.6025128E7
28.452258,-6.607776E7
28.460597,-6.5978864E7
28.468936,-6.5972272E7
28.477275,-6.5943216E7
28.485613999999998,-6.5996468E7
28.493952999999998,-6.6089472E7
28.502291999999997,-6.6179064E7
28.510631000000004,-6.6254836E7
28.518969000000006,-6.635408E7
28.527308000000005,-6.6395936E7
28.535647000000004,-6.6510416E7
28.543986000000004,-6.6604E7
28.552325000000003,-6.670836E7
28.560664000000003,-6.6790516E7
28.569003000000002,-6.6831964E7
28.577342,-6.6927552E7
28.585679999999996,-6.7024712E7
28.594018999999996,-6.7115344E7
28.602358000000002,-6.714492E7
28.610697000000002,-6.7211728E7
28.619036,-6.7231344E7
28.627375,-6.71406E7
28.635714,-6.6931112E7
28.644053,-6.668332E7
28.652391,-6.6405016E7
28.66073,-6.6121184E7
28.669069,-6.5838728E7
28.677408,-6.559048E7
28.685747,-6.5453656E7
28.694086,-6.5185168E7
28.702425000000005,-6.4995832E7
28.710764000000005,-6.4845848E7
28.719103000000004,-6.4684112E7
28.727442000000003,-6.453016E7
28.73578,-6.4438536E7
28.744118999999998,-6.4384784E7
28.752457999999997,-6.4308456E7
28.760796999999997,-6.422808E7
28.769135999999996,-6.4199928E7
28.777474999999995,-6.412846E7
28.785814000000002,-6.4055088E7
28.794153,-6.4028464E7
28.802491000000003,-6.3977468E7
28.810830000000003,-6.393698E7
28.819169000000002,-6.3959284E7
28.827508,-6.3973704E7
28.835847,-6.4004552E7
28.844186,-6.402584E7
28.852525,-6.41013E7
28.860863000000002,-6.4106896E7
28.869202,-6.4168048E7
28.877541,-6.4210968E7
28.88588,-6.4185712E7
28.894219000000007,-6.4236436E7
28.902558000000006,-6.4239456E7
28.910897000000006,-6.4242612E7
28.919236000000005,-6.424428E7
28.927575000000004,-6.4335544E7
28.935913,-6.4315396E7
28.944252,-6.4311104E7
28.952590999999998,-6.4298812E7
28.960929999999998,-6.42891E7
28.969268999999997,-6.4294292E7
28.977607999999996,-6.4366424E7
28.985946999999996,-6.43465E7
28.994286000000002,-6.4379344E7
29.002625000000002,-6.4375912E7
29.010963000000004,-6.444202E7
29.019302000000003,-6.451312E7
29.027641000000003,-6.4536428E7
29.035980000000002,-6.4606328E7
29.044319,-6.4622392E7
29.052658,-6.4721444E7
29.060997,-6.480212E7
29.069334999999995,-6.4840608E7
29.077673999999995,-6.4888784E7
29.086013,-6.4988316E7
29.094352,-6.511968E7
29.102691,-6.5158424E7
29.11103,-6.5255916E7
29.119369,-6.5343196E7
29.127708,-6.5401188E7
29.136046999999998,-6.549848E7
29.144385999999997,-6.561938E7
29.152724,-6.5650552E7
29.161063,-6.5722104E7
29.169401999999998,-6.5803628E7
29.177740999999997,-6.5891352E7
29.186080000000004,-6.5970808E7
29.194419000000003,-6.5999176E7
29.202758000000003,-6.6066936E7
29.211096000000005,-6.6134832E7
29.219435000000004,-6.6214728E7
29.227774000000004,-6.6288624E7
29.236113000000003,-6.6353616E7
29.244452000000003,-6.6447368E7
29.252791000000002,-6.6488764E7
29.26113,-6.6577464E7
29.269469,-6.6692472E7
29.277808,-6.6743728E7
29.286146000000002,-6.6841168E7
29.294485,-6.6920684E7
29.302824,-6.7006788E7
29.311163,-6.7060416E7
29.319502,-6.7144904E7
29.327841,-6.7188096E7
29.33618,-6.7201096E7
29.344519,-6.7269184E7
29.352857999999998,-6.7358984E7
29.361196,-6.7424896E7
29.369535,-6.739716E7
29.377874000000006,-6.7214712E7
29.386213000000005,-6.6994676E7
29.394552000000004,-6.6689996E7
29.402891000000004,-6.6411032E7
29.411230000000003,-6.6177112E7
29.419569000000003,-6.5917688E7
29.427906999999998,-6.5733064E7
29.436245999999997,-6.5442152E7
29.444584999999996,-6.5255696E7
29.452923999999996,-6.5063488E7
29.461262999999995,-6.496992E7
29.469601999999995,-6.4814756E7
29.477941,-6.4747332E7
29.48628,-6.468742E7
29.494619,-6.4635448E7
29.502957000000002,-6.4606456E7
29.511296,-6.4533104E7
29.519635,-6.452716E7
29.527974,-6.4530848E7
29.536313,-6.453782E7
29.544652,-6.4522772E7
29.552991,-6.452748E7
29.561329999999998,-6.4482392E7
29.569668000000007,-6.4565376E7
29.578007000000007,-6.4561424E7
29.586346000000006,-6.460812E7
29.594685000000005,-6.4667592E7
29.603024000000005,-6.4726264E7
29.611363000000004,-6.480124E7
29.619702000000004,-6.4862608E7
29.628041000000003,-6.491622E7
29.636378999999998,-6.4983664E7
29.644717999999997,-6.5016644E7
29.653056999999997,-6.5015436E7
29.661395999999996,-6.5086908E7
29.669735000000003,-6.504254E7
29.678074000000002,-6.5035512E7
29.686413,-6.5079064E7
29.694751000000004,-6.5038368E7
29.703090000000003,-6.5055048E7
29.711429000000003,-6.5059684E7
29.719768000000002,-6.5059264E7
29.728107,-6.509284E7
29.736446,-6.5118728E7
29.744785,-6.5171984E7
29.753124,-6.5200712E7
29.761462,-6.5283316E7
29.769802000000006,-6.5328668E7
29.77814,-6.5376932E7
29.786479,-6.5442752E7
29.794818,-6.555462E7
29.803157,-6.561492E7
29.811495999999998,-6.56488E7
29.819834999999998,-6.5766504E7
29.828173999999997,-6.58312E7
29.836512999999997,-6.5881408E7
29.844851,-6.5959128E7
29.853189999999998,-6.6011688E7
29.861529000000004,-6.6073608E7
29.869868000000004,-6.61324E7
29.878207000000003,-6.6243192E7
29.886546000000003,-6.631022E7
29.894885000000002,-6.6413444E7
29.903224,-6.6517536E7
29.911563,-6.6636184E7
29.919901000000003,-6.6686576E7
29.928240000000002,-6.6765088E7
29.936579000000002,-6.6840396E7
29.944918,-6.6913712E7
29.953257,-6.6987608E7
29.961596000000007,-6.699958E7
29.969935000000007,-6.7078988E7
29.978273,-6.7171944E7
29.986612,-6.7227344E7
29.994951,-6.7300544E7
30.00329,-6.734432E7
30.011629,-6.7465648E7
30.019968,-6.7509296E7
30.028306999999998,-6.7588584E7
30.036645999999998,-6.7641952E7
30.044984999999997,-6.7727968E7
30.053323000000006,-6.7802288E7
30.061662000000005,-6.7868568E7
30.070001000000005,-6.7929696E7
30.078340000000004,-6.7708392E7
30.086679000000004,-6.7688176E7
30.095018000000003,-6.7283656E7
30.103357000000003,-6.7037672E7
30.111694999999997,-6.6740648E7
30.120033999999997,-6.6466496E7
30.128372999999996,-6.6193696E7
30.136711999999996,-6.5984352E7
30.145050999999995,-6.5713352E7
30.15339,-6.5508804E7
30.161729,-6.5293536E7
30.170068,-6.5108864E7
30.178407,-6.4961592E7
30.186745000000002,-6.4846324E7
30.195084,-6.4772572E7
30.203423,-6.467556E7
30.211762,-6.464236E7
30.220101,-6.4558148E7
30.22844,-6.4477432E7
30.236779,-6.4380884E7
30.245117999999998,-6.4629356E7
30.253456000000007,-6.4606484E7
30.261795000000006,-6.4764968E7
30.270134000000006,-6.4772984E7
30.278473000000005,-6.4788112E7
30.286812000000005,-6.4834716E7
30.295151000000004,-6.4882624E7
30.303490000000004,-6.487254E7
30.311829000000003,-6.4910616E7
30.320166999999998,-6.4986392E7
30.328505999999997,-6.5077768E7
30.336844999999997,-6.5144036E7
30.345184000000003,-6.5151224E7
30.353523000000003,-6.5182804E7
30.361862000000002,-6.5239516E7
30.370201,-6.525912E7
30.37854,-6.5234536E7
30.386879,-6.5221472E7
30.395217000000002,-6.5213396E7
30.403556000000002,-6.5187504E7
30.411895,-6.5227152E7
30.420234,-6.5249956E7
30.428573,-6.51855E7
30.436912,-6.5179356E7
30.445251000000006,-6.5258468E7
30.453590000000005,-6.5218288E7
30.461928,-6.5260464E7
30.470267,-6.5286816E7
30.478606,-6.532416E7
30.486945,-6.537572E7
30.495283999999998,-6.5482388E7
30.503622999999997,-6.554432E7
30.511961999999997,-6.5614992E7
30.520300999999996,-6.5677496E7
30.528639999999996,-6.5758724E7
30.536978999999995,-6.5771272E7
30.545317000000004,-6.581564E7
30.553656000000004,-6.5860848E7
30.561995000000003,-6.5936124E7
30.570334000000003,-6.6027176E7
30.578673000000002,-6.6096444E7
30.587012,-6.6112016E7
30.595351,-6.6206688E7
30.603689000000003,-6.6320088E7
30.612028000000002,-6.6414144E7
30.620367,-6.646264E7
30.628706,-6.6602192E7
30.637045000000008,-6.66333E7
30.645384000000007,-6.6658052E7
30.653723000000006,-6.6777104E7
30.662062000000006,-6.6895136E7
30.670401000000005,-6.6955848E7
30.678739,-6.7070584E7
30.687078,-6.7181816E7
30.695417,-6.7205752E7
30.703756,-6.7300832E7
30.712094999999998,-6.737384E7
30.720433999999997,-6.7494064E7
30.728772999999997,-6.7530912E7
30.737111000000006,-6.753592E7
30.745451000000003,-6.7666816E7
30.753789000000005,-6.7818992E7
30.762128000000004,-6.7795856E7
30.770467000000004,-6.784104E7
30.778806000000003,-6.7643008E7
30.787145000000002,-6.7661888E7
30.795484000000002,-6.7359984E7
30.803823,-6.7234912E7
30.812162,-6.6960412E7
30.820499999999996,-6.6634788E7
30.828839000000002,-6.6373768E7
30.837178,-6.6068812E7
30.845517,-6.5833676E7
30.853856,-6.554462E7
30.862195,-6.5301224E7
30.870534,-6.5081072E7
30.878872,-6.4865524E7
30.887211,-6.4638272E7
30.89555,-6.456724E7
30.903889,-6.4472084E7
30.912228,-6.4423212E7
30.920567,-6.4386144E7
30.928906000000005,-6.45196E7
30.937245000000004,-6.4469976E7
30.945583,-6.4625688E7
30.953922,-6.4572464E7
30.962260999999998,-6.4557132E7
30.970599999999997,-6.4571048E7
30.978939000000004,-6.4598144E7
30.987278000000003,-6.4602656E7
30.995617000000003,-6.4656524E7
31.003956000000002,-6.4697712E7
31.012295,-6.475698E7
31.020633000000004,-6.47982E7
31.028972000000003,-6.4872928E7
31.037311000000003,-6.4912296E7
31.045650000000002,-6.4966468E7
31.053989,-6.4966396E7
31.062328,-6.4966392E7
31.070667,-6.497712E7
31.079006,-6.4965072E7
31.087345,-6.4971704E7
31.095683,-6.499308E7
31.104022,-6.5004392E7
31.112361,-6.4981472E7
31.120700000000006,-6.4987944E7
31.129039000000006,-6.5002888E7
31.137378000000005,-6.4967448E7
31.145717000000005,-6.496526E7
31.154055,-6.4949644E7
31.162395000000004,-6.495654E7
31.170733,-6.5009192E7
31.179071999999998,-6.5072528E7
31.187410999999997,-6.5128832E7
31.195749999999997,-6.5195232E7
31.204088999999996,-6.52935E7
31.212427999999996,-6.5296632E7
31.220767000000002,-6.5352864E7
31.229105000000004,-6.538628E7
31.237444000000004,-6.54507E7
31.245783000000003,-6.5602592E7
31.254122000000002,-6.5665392E7
31.262461000000002,-6.5747688E7
31.2708,-6.5873784E7
31.279139,-6.5937912E7
31.287478,-6.6005084E7
31.295815999999995,-6.6063512E7
31.304154999999994,-6.6124056E7
31.312494,-6.6194528E7
31.320833,-6.6272668E7
31.329172,-6.6324128E7
31.337511,-6.641834E7
31.34585,-6.642258E7
31.354189000000005,-6.6542352E7
31.362527,-6.6609092E7
31.370867000000004,-6.669414E7
31.379205,-6.6785268E7
31.387544,-6.687118E7
31.395882999999998,-6.6949544E7
31.404221999999997,-6.7063644E7
31.412561000000004,-6.717024E7
31.420900000000003,-6.723364E7
31.429239000000003,-6.7301408E7
31.437578000000002,-6.7373072E7
31.445916000000004,-6.7137648E7
31.454255000000003,-6.7072116E7
31.462594000000003,-6.6740112E7
31.470933000000002,-6.6473788E7
31.479272,-6.6141328E7
31.487611,-6.5865284E7
31.49595,-6.5516968E7
31.504289,-6.5279368E7
31.512627000000002,-6.5011096E7
31.520966,-6.4706212E7
31.529305,-6.4453736E7
31.537644,-6.42442E7
31.545983,-6.3992732E7
31.554322,-6.3803392E7
31.562661,-6.3696876E7
31.570999999999998,-6.3556608E7
31.579338999999997,-6.3695976E7
31.587677,-6.3660312E7
31.596016,-6.3803288E7
31.604355000000005,-6.3760884E7
31.612694000000005,-6.379626E7
31.621033000000004,-6.3809624E7
31.629372000000004,-6.3728712E7
31.637711000000003,-6.3724348E7
31.646050000000002,-6.3753592E7
31.654387999999997,-6.372498E7
31.662726999999997,-6.3806032E7
31.671065999999996,-6.3884976E7
31.679404999999996,-6.3979012E7
31.687743999999995,-6.40108E7
31.696082999999994,-6.409364E7
31.704422,-6.4183352E7
31.712761,-6.4203352E7
31.721099000000002,-6.4256536E7
31.729438000000002,-6.4246492E7
31.737777,-6.4261072E7
31.746116,-6.4287176E7
31.754455,-6.4321312E7
31.762794,-6.4259284E7
31.771133,-6.4267928E7
31.779472,-6.4282148E7
31.787810999999998,-6.4284856E7
31.796149000000007,-6.4226244E7
31.804488000000006,-6.4245696E7
31.812827000000006,-6.4278328E7
31.821166000000005,-6.4299472E7
31.829505000000005,-6.4329892E7
31.837844000000004,-6.440896E7
31.846183000000003,-6.4392736E7
31.854521,-6.4506292E7
31.862859999999998,-6.4512976E7
31.871198999999997,-6.4563008E7
31.879537999999997,-6.4567888E7
31.887876999999996,-6.46946E7
31.896216000000003,-6.4792392E7
31.904555000000002,-6.4849568E7
31.912894,-6.49046E7
31.921232000000003,-6.4961056E7
31.929571000000003,-6.5126064E7
31.937910000000002,-6.5196408E7
31.946249,-6.529568E7
31.954588,-6.5379288E7
31.962927,-6.54534E7
31.971266,-6.5491392E7
31.979605,-6.557178E7
31.987943,-6.5689512E7
31.996282,-6.5790104E7
32.004621,-6.5880112E7
32.01296,-6.5860276E7
32.021299,-6.6016292E7
32.029638,-6.6060872E7
32.037977,-6.6194728E7
32.046316,-6.6267832E7
32.054654,-6.638172E7
32.062993,-6.6431332E7
32.071332,-6.65396E7
32.079671000000005,-6.6599132E7
32.088010000000004,-6.659592E7
32.096349000000004,-6.6495188E7
32.104688,-6.620088E7
32.113027,-6.5945212E7
32.121366,-6.5621144E7
32.129705,-6.5350032E7
32.138043,-6.494244E7
32.146382,-6.4651024E7
32.154721,-6.422858E7
32.16306,-6.3895504E7
32.171399,-6.353966E7
32.179738,-6.3254284E7
32.18807700000001,-6.3026852E7
32.196415,-6.2788196E7
32.204754,-6.2674428E7
32.213093,-6.25701E7
32.221432,-6.243428E7
32.229771,-6.2376348E7
32.23811,-6.23069E7
32.246449,-6.2231208E7
32.254788,-6.2231848E7
32.263126,-6.2391932E7
32.271465000000006,-6.2388152E7
32.279804000000006,-6.2589328E7
32.288143000000005,-6.2589904E7
32.296482000000005,-6.2603012E7
32.304821000000004,-6.2626808E7
32.31316,-6.2659968E7
32.321499,-6.2781368E7
32.329838,-6.2846936E7
32.338177,-6.2904568E7
32.346515,-6.296368E7
32.354853999999996,-6.3003472E7
32.363192999999995,-6.3045088E7
32.371531999999995,-6.3069264E7
32.379871,-6.3071772E7
32.38821,-6.3132608E7
32.396549,-6.3143112E7
32.404887,-6.3107904E7
32.413226,-6.3108036E7
32.421565,-6.3136264E7
32.429904,-6.312744E7
32.438243,-6.3148968E7
32.446582,-6.3169032E7
32.454921,-6.318468E7
32.46326,-6.3166952E7
32.471599,-6.3219156E7
32.47993700000001,-6.3237616E7
32.488276000000006,-6.3280792E7
32.496615000000006,-6.3375992E7
32.504954000000005,-6.3395064E7
32.513293000000004,-6.3510148E7
32.521632000000004,-6.3569108E7
32.529971,-6.366316E7
32.53831,-6.3728184E7
32.546648,-6.3811344E7
32.554987,-6.3915992E7
32.563326,-6.396588E7
32.571665,-6.4073784E7
32.580004,-6.4176644E7
32.588343,-6.4313744E7
32.596682,-6.4294764E7
32.605021,-6.4459056E7
32.613359,-6.4541468E7
32.621699,-6.464186E7
32.630037,-6.4656424E7
32.638376,-6.4766424E7
32.646715,-6.4693368E7
32.655054,-6.4769088E7
32.663393,-6.472318E7
32.671732000000006,-6.4809768E7
32.68007,-6.4883136E7
32.688410000000005,-6.5010376E7
32.696748,-6.5077936E7
32.705087,-6.51375E7
32.713426,-6.5120768E7
32.721765,-6.5015652E7
32.730104,-6.4810248E7
32.738443,-6.4579092E7
32.746781999999996,-6.4283168E7
32.755120000000005,-6.3941392E7
32.763459000000005,-6.3568296E7
32.771798000000004,-6.3212184E7
32.780137,-6.2821892E7
32.788476,-6.250948E7
32.796815,-6.2130092E7
32.805154,-6.1843724E7
32.813493,-6.1619904E7
32.821832,-6.1407008E7
32.83017,-6.1435192E7
32.838509,-6.1270976E7
32.846848,-6.1357896E7
32.85518700000001,-6.1240844E7
32.86352600000001,-6.128376E7
32.87186500000001,-6.1239596E7
32.880204000000006,-6.1210128E7
32.888543000000006,-6.1177192E7
32.896881,-6.1247416E7
32.90522,-6.118796E7
32.913559,-6.1232712E7
32.921898,-6.1272952E7
32.930237,-6.1286104E7
32.938576,-6.1375192E7
32.946915,-6.1374988E7
32.955254,-6.1442232E7
32.963592000000006,-6.1478968E7
32.971931000000005,-6.1532552E7
32.980270000000004,-6.1600808E7
32.988609000000004,-6.1649728E7
32.996948,-6.17085E7
33.005287,-6.175256E7
33.013626,-6.17934E7
33.021965,-6.181264E7
33.030304,-6.1874216E7
33.038641999999996,-6.1845452E7
33.046981,-6.1841384E7
33.05532,-6.1829876E7
33.063659,-6.1827368E7
33.071998,-6.1812984E7
33.080337,-6.1839236E7
33.088676,-6.1876108E7
33.097015,-6.18793E7
33.105354,-6.190682E7
33.113692,-6.1955476E7
33.122031,-6.2039912E7
33.13037,-6.20986E7
33.138709,-6.2165708E7
33.147048,-6.2219204E7
33.155387000000005,-6.2338376E7
33.163726000000004,-6.243612E7
33.172065,-6.253084E7
33.180403000000005,-6.2645596E7
33.188742000000005,-6.2784688E7
33.197081000000004,-6.2835852E7
33.205420000000004,-6.2994608E7
33.213759,-6.3070656E7
33.222098,-6.3140616E7
33.230437,-6.3254824E7
33.238775000000004,-6.3319544E7
33.247114,-6.339594E7
33.255453,-6.3499716E7
33.263792,-6.3614592E7
33.272131,-6.3691256E7
33.28047,-6.378498E7
33.288809,-6.3898484E7
33.297148,-6.400188E7
33.305487,-6.415916E7
33.313826,-6.419456E7
33.322164,-6.4308236E7
33.330503,-6.4202016E7
33.33884200000001,-6.4204696E7
33.347181000000006,-6.398572E7
33.355520000000006,-6.3850972E7
33.363859000000005,-6.3647584E7
33.372198000000004,-6.3447E7
33.380536,-6.3121144E7
33.388875,-6.2715368E7
33.397214,-6.2288784E7
33.405553,-6.19509E7
33.413892,-6.1532092E7
33.422231,-6.1212088E7
33.430569999999996,-6.0825876E7
33.438908999999995,-6.0562248E7
33.447248,-6.0471136E7
33.455586000000004,-6.0230192E7
33.463925,-6.0228308E7
33.472264,-6.0099368E7
33.480603,-6.010038E7
33.488942,-5.999444E7
33.497281,-6.0090336E7
33.50562,-6.0050892E7
33.513959,-6.0058512E7
33.522296999999995,-5.994662E7
33.530636,-5.9925616E7
33.538975,-5.9901148E7
33.54731400000001,-5.9905656E7
33.55565300000001,-5.9941768E7
33.563992000000006,-5.9918756E7
33.572331000000005,-5.9956656E7
33.580670000000005,-5.9999528E7
33.589009000000004,-6.0064268E7
33.597347,-6.0126728E7
33.605686,-6.020688E7
33.614025,-6.0305464E7
33.622364,-6.0400524E7
33.630703,-6.0501008E7
33.639042,-6.0518304E7
33.647381,-6.0545628E7
33.655719000000005,-6.0601444E7
33.664058000000004,-6.063068E7
33.672397000000004,-6.060432E7
33.680736,-6.0621564E7
33.689075,-6.0579152E7
33.697414,-6.0632632E7
33.705753,-6.0644016E7
33.714092,-6.066476E7
33.722431,-6.07671E7
33.73077,-6.0763324E7
33.739108,-6.086802E7
33.747447,-6.0910776E7
33.755786,-6.0957984E7
33.764125,-6.1049408E7
33.772464,-6.1129128E7
33.780803,-6.1189568E7
33.789142,-6.1279816E7
33.797481,-6.1401056E7
33.805819,-6.1497784E7
33.814158,-6.1582768E7
33.822497000000006,-6.167276E7
33.830836000000005,-6.1769992E7
33.839175000000004,-6.1862888E7
33.847514000000004,-6.198448E7
33.855853,-6.208148E7
33.864192,-6.2169572E7
33.87253,-6.2309504E7
33.880869,-6.2432216E7
33.889207999999996,-6.2564616E7
33.897546999999996,-6.2632276E7
33.905885999999995,-6.2758072E7
33.914224999999995,-6.2855408E7
33.92256400000001,-6.2957176E7
33.93090300000001,-6.2861216E7
33.939241,-6.2971408E7
33.94758,-6.2950188E7
33.955919,-6.3095776E7
33.964258,-6.3162044E7
33.972597,-6.3284048E7
33.980936,-6.3344708E7
33.989275,-6.3373048E7
33.997614,-6.3375504E7
34.005953,-6.3245716E7
34.01429100000001,-6.3073324E7
34.02263000000001,-6.2826416E7
34.030969000000006,-6.2534208E7
34.039308000000005,-6.2181384E7
34.047647000000005,-6.1745748E7
34.055986000000004,-6.129366E7
34.064325000000004,-6.0872516E7
34.072663,-6.0405104E7
34.081002,-6.009132E7
34.089341,-5.973276E7
34.09768,-5.9486648E7
34.106018999999996,-5.9285832E7
34.114357999999996,-5.928266E7
34.122697,-5.9130656E7
34.131036,-5.9181216E7
34.139375,-5.9089216E7
34.147713,-5.9165176E7
34.156052,-5.9058892E7
34.164391,-5.9173352E7
34.17273,-5.9175312E7
34.181069,-5.9116332E7
34.189408,-5.9072944E7
34.197747,-5.9052924E7
34.206086,-5.9048256E7
34.214425,-5.9005E7
34.222763,-5.9089256E7
34.231102,-5.9146768E7
34.239441,-5.9221756E7
34.24778,-5.9337368E7
34.256119,-5.9393996E7
34.264458,-5.9508084E7
34.272797,-5.9581376E7
34.281136,-5.9724528E7
34.289474,-5.9808512E7
34.297813,-5.9917028E7
34.306152000000004,-5.9950076E7
34.314491000000004,-5.994808E7
34.32283,-6.000424E7
34.331169,-5.999092E7
34.339508,-6.0047164E7
34.347847,-6.0042108E7
34.356185,-6.0063712E7
34.364524,-6.0103128E7
34.372863,-6.0206032E7
34.381202,-6.023572E7
34.389541,-6.0335888E7
34.39788,-6.0384644E7
34.40621900000001,-6.0456576E7
34.41455800000001,-6.0544216E7
34.422897000000006,-6.0623488E7
34.431235,-6.0729716E7
34.439574,-6.084696E7
34.447913,-6.0957768E7
34.456252,-6.1052344E7
34.464591,-6.1169336E7
34.47293,-6.1326336E7
34.481269,-6.1442836E7
34.489607,-6.1627704E7
34.497946000000006,-6.1729548E7
34.506285000000005,-6.1836972E7
34.514624000000005,-6.1861536E7
34.522963000000004,-6.1953472E7
34.531302000000004,-6.196786E7
34.539641,-6.2100336E7
34.54798,-6.2247304E7
34.556318,-6.2366548E7
34.564658,-6.2513504E7
34.572995999999996,-6.2624088E7
34.581334999999996,-6.2708512E7
34.589673999999995,-6.2784504E7
34.598013,-6.291628E7
34.606352,-6.3071768E7
34.614691,-6.3194468E7
34.62303,-6.325948E7
34.631369,-6.3200456E7
34.639707,-6.3278656E7
34.648046,-6.3226396E7
34.656385,-6.3263924E7
34.664724,-6.3324816E7
34.673063,-6.34404E7
34.681402,-6.3530936E7
34.689741,-6.3663616E7
34.69807900000001,-6.3673176E7
34.706418000000006,-6.3641144E7
34.714757000000006,-6.3579616E7
34.723096000000005,-6.3263008E7
34.731435000000005,-6.3034284E7
34.739774000000004,-6.2642272E7
34.748113000000004,-6.2234976E7
34.756452,-6.1800864E7
34.764791,-6.1335864E7
34.773129,-6.0928396E7
34.781468,-6.0569048E7
34.789807,-6.0240012E7
34.798146,-5.9901104E7
34.806485,-5.9667348E7
34.814824,-5.9533272E7
34.823163,-5.937876E7
34.831502,-5.9330496E7
34.839841,-5.9193552E7
34.848179,-5.9187512E7
34.856518,-5.9115224E7
34.864857,-5.9186816E7
34.873196,-5.9067672E7
34.881535,-5.9115436E7
34.889874000000006,-5.9042312E7
34.898213000000005,-5.9050744E7
34.906552000000005,-5.8976984E7
34.91489,-5.8962452E7
34.923229,-5.8955228E7
34.931568,-5.8988536E7
34.939907,-5.8994712E7
34.948246,-5.912678E7
34.956585,-5.910622E7
34.964923999999996,-5.9158544E7
34.973262999999996,-5.9315352E7
34.981601999999995,-5.940264E7
34.989940000000004,-5.9515232E7
34.998279000000004,-5.9554112E7
35.006618,-5.9647668E7
35.014957,-5.967748E7
35.023296,-5.9747624E7
35.031635,-5.9779596E7
35.039974,-5.983E7
35.048312,-5.9874808E7
35.056651,-5.99174E7
35.06499,-5.9951692E7
35.073329,-5.9994028E7
35.08166800000001,-6.0030752E7
35.09000700000001,-6.0106052E7
35.09834600000001,-6.016786E7
35.106685000000006,-6.014818E7
35.115024000000005,-6.02784E7
35.123362,-6.0371176E7
35.131701,-6.0495528E7
35.14004,-6.0634396E7
35.148379,-6.0744048E7
35.156718,-6.088158E7
35.165057,-6.0988864E7
35.173396,-6.1111348E7
35.181734999999996,-6.1204612E7
35.190073000000005,-6.1298504E7
35.198412000000005,-6.1502708E7
35.206751000000004,-6.1629768E7
35.215090000000004,-6.1711464E7
35.223429,-6.185882E7
35.231768,-6.1810872E7
35.240107,-6.1854232E7
35.248446,-6.1876768E7
35.256785,-6.1986952E7
35.265122999999996,-6.2116792E7
35.273462,-6.2259592E7
35.281801,-6.2347828E7
35.29014,-6.2464168E7
35.298479,-6.2593172E7
35.306818,-6.2725328E7
35.315157,-6.2872936E7
35.323495,-6.3008776E7
35.331834,-6.308526E7
35.340173,-6.3158244E7
35.348512,-6.3054496E7
35.356851,-6.3189716E7
35.36519,-6.3018048E7
35.373529000000005,-6.3161352E7
35.381868000000004,-6.3151064E7
35.390207000000004,-6.3286448E7
35.398545000000006,-6.3419728E7
35.406884000000005,-6.35716E7
35.415223000000005,-6.3624772E7
35.423562000000004,-6.3746928E7
35.431901,-6.3874528E7
35.44024,-6.3935728E7
35.448579,-6.4081008E7
35.456918,-6.4165676E7
35.465256000000004,-6.423792E7
35.473595,-6.4251144E7
35.481934,-6.4337384E7
35.490273,-6.4207224E7
35.498612,-6.407496E7
35.506951,-6.3909388E7
35.51529,-6.3551264E7
35.523629,-6.3167128E7
35.531967,-6.2735784E7
35.540307,-6.2284304E7
35.548645,-6.1744596E7
35.556984,-6.1391396E7
35.56532300000001,-6.0937188E7
35.573662000000006,-6.0479724E7
35.582001000000005,-6.0039292E7
35.590340000000005,-5.9775224E7
35.598678,-5.9602568E7
35.607017,-5.9455752E7
35.615356,-5.9339596E7
35.623695,-5.9239504E7
35.632034,-5.9216008E7
35.640373,-5.9094992E7
35.648711999999996,-5.9100768E7
35.657050999999996,-5.9003968E7
35.665389999999995,-5.891956E7
35.673729,-5.8899064E7
35.682067,-5.878168E7
35.690406,-5.872436E7
35.698745,-5.8648148E7
35.707084,-5.8634964E7
35.715423,-5.862664E7
35.723762,-5.8628284E7
35.732101,-5.878844E7
35.740439,-5.8847576E7
35.748778,-5.9108212E7
35.75711700000001,-5.9179032E7
35.76545600000001,-5.9262128E7
35.77379500000001,-5.9339652E7
35.782134000000006,-5.9442092E7
35.790473000000006,-5.9515844E7
35.798812000000005,-5.9572672E7
35.80715,-5.9664176E7
35.815489,-5.9668952E7
35.823828,-5.9696088E7
35.832167,-5.9775488E7
35.840506,-5.9775444E7
35.848845,-5.9829312E7
35.857184000000004,-5.9849296E7
35.865523,-5.9944256E7
35.873862,-5.9999648E7
35.882200000000005,-6.004924E7
35.890539000000004,-6.009446E7
35.898878,-6.0209808E7
35.907217,-6.0251368E7
35.915556,-6.0379444E7
35.923895,-6.043596E7
35.932234,-6.053734E7
35.940573,-6.0712876E7
35.948911,-6.0830016E7
35.95725100000001,-6.0949984E7
35.965589,-6.0956704E7
35.973928,-6.1073636E7
35.982267,-6.105632E7
35.990606,-6.1152904E7
35.998945,-6.1244088E7
36.007284,-6.135196E7
36.015623,-6.1470664E7
36.023961,-6.1609804E7
36.0323,-6.1742344E7
36.040639,-6.1867532E7
36.048978000000005,-6.1946632E7
36.057317000000005,-6.2088756E7
36.065656000000004,-6.2218696E7
36.073995000000004,-6.2393864E7
36.082334,-6.2300936E7
36.090673,-6.2430688E7
36.099011,-6.2419072E7
36.10735,-6.2534344E7
36.115689,-6.269556E7
36.124028,-6.2783496E7
36.132367,-6.2854384E7
36.140706,-6.2966592E7
36.14904500000001,-6.306306E7
36.157383,-6.3136348E7
36.165722,-6.32571E7
36.174061,-6.3398612E7
36.1824,-6.3501104E7
36.190739,-6.3651424E7
36.199078,-6.3504592E7
36.207417,-6.3639608E7
36.215756,-6.3469204E7
36.224095,-6.3611736E7
36.232433,-6.3662744E7
36.24077200000001,-6.3794248E7
36.249111000000006,-6.3919952E7
36.257450000000006,-6.4009272E7
36.265789000000005,-6.4122544E7
36.274128000000005,-6.4258456E7
36.282467000000004,-6.4402336E7
36.290806,-6.4522952E7
36.299145,-6.4604888E7
36.307483,-6.4776424E7
36.315822,-6.484422E7
36.324161,-6.483336E7
36.332499999999996,-6.4510828E7
36.340839,-6.4317996E7
36.349178,-6.3844312E7
36.357517,-6.3461056E7
36.365855,-6.304692E7
36.374194,-6.2624528E7
36.382533,-6.2075592E7
36.390872,-6.1635696E7
36.399211,-6.1215624E7
36.40755,-6.0838212E7
36.415889,-6.0675568E7
36.424228,-6.0417476E7
36.432566,-6.0277704E7
36.440906000000005,-6.0039356E7
36.449244,-5.999882E7
36.457583,-5.9820776E7
36.465922,-5.9810036E7
36.474261,-5.9658536E7
36.4826,-5.96803E7
36.490939000000004,-5.962164E7
36.499278000000004,-5.953492E7
36.507616,-5.946402E7
36.515955,-5.9403344E7
36.524294,-5.9371912E7
36.532633000000004,-5.9305432E7
36.540972000000004,-5.9254852E7
36.549311,-5.9443324E7
36.55765,-5.948972E7
36.565989,-5.9603924E7
36.574328,-5.9698244E7
36.582667,-5.9763408E7
36.591005,-5.988762E7
36.599344,-6.0012288E7
36.607683,-6.0106384E7
36.616022,-6.011444E7
36.624361,-6.023042E7
36.63270000000001,-6.0314156E7
36.641039000000006,-6.0354472E7
36.649377,-6.0371872E7
36.657716,-6.042344E7
36.666055,-6.0436168E7
36.674394,-6.0499028E7
36.682733,-6.0566616E7
36.691072,-6.0548176E7
36.699411,-6.0622272E7
36.70775,-6.0733032E7
36.716088,-6.0702032E7
36.724427000000006,-6.0724384E7
36.732766000000005,-6.082534E7
36.741105000000005,-6.088982E7
36.749444000000004,-6.10244E7
36.757783,-6.1084268E7
36.766122,-6.1029984E7
36.774461,-6.1209744E7
36.782799,-6.1382256E7
36.791138,-6.1404688E7
36.799476999999996,-6.15382E7
36.807815999999995,-6.1677164E7
36.816154999999995,-6.1590524E7
36.824494,-6.1736524E7
36.832833,-6.1740728E7
36.841172,-6.1855048E7
36.84951,-6.2009056E7
36.857849,-6.2136288E7
36.866188,-6.2312144E7
36.874527,-6.2373496E7
36.882866,-6.2560952E7
36.891205,-6.2663804E7
36.899544,-6.2762776E7
