ms,y
51,8.399677745092632
52,15.079561274193882
53,20.28553118493906
54,24.181306190251043
55,26.930605003052673
56,28.69714633626681
57,29.64464890281631
58,29.93683141562402
59,29.7374125876128
60,29.210111131705506
61,28.51864576082498
62,27.826735187894098
63,27.298098125835697
64,27.096453287572636
65,27.385519386027774
66,28.329015134123956
67,30.09065924478405
68,33.11588844607785
69,37.44161474137983
70,42.618769756569876
71,48.19828511752784
72,53.73109245013361
73,58.768123380267035
74,62.86030953380799
75,65.55858253663637
76,66.76569097087486
77,66.86763982326194
78,66.14024532660103
79,64.85932371369555
80,63.30069121734891
81,61.74016407036457
82,60.453558505545935
83,59.71669075569644
84,59.42138487359789
85,59.25822011408167
86,59.20114551302552
87,59.22411010630725
88,59.3010629298046
89,59.40595301939537
90,59.512729410957306
91,59.595341140368184
92,59.627737243505784
93,59.62644630230144
94,59.62591084887656
95,59.62695084439401
96,59.63038625001665
97,59.63703702690735
98,59.64772313622898
99,59.66326453914441
100,59.684481196816506
101,59.7138812787137
102,59.75175879921497
103,59.79561248684901
104,59.84294107014449
105,59.8912432776301
106,59.93801783783452
107,59.98076347928643
108,60.01697893051451
109,60.04719065040592
110,60.07402029515401
111,60.09810938924673
112,60.12009945717209
113,60.140632023418036
114,60.16034861247257
115,60.17989074882365
116,60.199899956959264
117,60.22101776136738
118,60.2432643774063
119,60.2659701650742
120,60.28874186581887
121,60.311186221088086
122,60.33290997232963
123,60.35351986099129
124,60.37262262852085
125,60.389825016366096
126,60.40515429912439
127,60.418996697863406
128,60.43149737373633
129,60.442801487896354
130,60.45305420149669
131,60.46240067569054
132,60.470986071631096
133,60.47895555047156
134,60.48612545258622
135,60.492294713003915
136,60.497582384859584
137,60.502107521288224
138,60.50598917542477
139,60.509346400404226
140,60.51229824936154
141,60.51496377543169
142,60.51746203174964
143,60.519635417631825
144,60.52127718988121
145,60.522432687862526
146,60.52314725094051
147,60.52346621847993
148,60.523434929845514
149,60.523098724402004
150,60.52250294151415
151,60.521806805870874
152,60.52103537627722
153,60.52003274327204
154,60.51864299739425
155,60.51671022918272
156,60.51407852917633
157,60.51059198791396
158,60.506094695934515
159,60.50073501605853
160,60.49475090508054
161,60.488120844500315
162,60.48082331581766
163,60.472836800532384
164,60.46413978014427
165,60.45471073615314
166,60.44452815005877
167,60.43357050336097
168,60.42131840188839
169,60.40754564762961
170,60.39267051632431
171,60.37711128371216
172,60.36128622553283
173,60.345613617526006
174,60.330511735431344
175,60.316398854988535
176,60.303454303085225
177,60.29135657625455
178,60.27977270470435
179,60.26836971864249
180,60.256814648276844
181,60.244774523815266
182,60.23191637546562
183,60.21790723343577
184,60.20337836704935
185,60.18896719005619
186,60.17434994930336
187,60.15920289163796
188,60.143202263907085
189,60.12602431295782
190,60.107345285637244
191,60.08684142879249
192,60.06418898927062
193,60.039305034731214
194,60.01243958284195
195,59.98376830546214
196,59.95346687445105
197,59.92171096166796
198,59.88867623897216
199,59.85453837822293
200,59.81947305127954
201,59.69396797525648
202,59.439493436670155
203,59.13269896148276
204,58.850234075656466
205,58.668748305153464
206,58.66489117593593
207,58.91531221396604
208,59.49666094520599
209,60.545833729430115
210,62.04850088657773
211,63.85447288285848
212,65.81356018448194
213,67.77557325765775
214,69.59032256859557
215,71.10761858350497
216,72.1772717685956
217,72.80733543759789
218,73.14499129057845
219,73.24874237325119
220,73.17709173133004
221,72.98854241052888
222,72.74159745656162
223,72.49475991514217
224,72.30653283198443
225,72.2354192528023
226,72.24248323906578
227,72.24975289110506
228,72.25717731292444
229,72.26470560852819
230,72.2722868819206
231,72.27987023710595
232,72.28740477808853
233,72.2948396088726
234,72.30185544955836
235,72.30836393827987
236,72.31466055609232
237,72.32104078405084
238,72.3278001032106
239,72.33523399462679
240,72.34363793935452
241,72.35330741844895
242,72.36257107966705
243,72.37030091519941
244,72.3776074227518
245,72.38560110002993
246,72.3953924447395
247,72.40809195458625
248,72.4248101272759
249,72.44665746051415
250,72.47474445200675
251,72.51048167579161
252,72.55345380872345
253,72.60203250273298
254,72.65458940975105
255,72.70949618170842
256,72.7651244705359
257,72.81984592816423
258,72.87203220652422
259,72.9228860212404
260,72.97447362955113
261,73.02646199580788
262,73.07851808436212
263,73.13030885956539
264,73.18150128576917
265,73.23176232732496
266,73.28075894858424
267,73.30541196469592
268,73.29450677038126
269,73.26550719935013
270,73.23587708531251
271,73.2230802619783
272,73.24458056305744
273,73.31784182225985
274,73.46032787329547
275,73.68950254987423
276,74.04001603642492
277,74.51027157279673
278,75.06336257583018
279,75.66238246236584
280,76.27042464924423
281,76.85058255330593
282,77.36594959139144
283,77.77961918034133
284,78.09260479019181
285,78.34048989206272
286,78.53822290441984
287,78.70075224572905
288,78.84302633445617
289,78.97999358906706
290,79.12660242802755
291,79.29780126980349
292,79.48066702965723
293,79.65504444906959
294,79.82503368583423
295,79.99473489774468
296,80.1682482425945
297,80.34967387817731
298,80.54311196228667
299,80.7526626527162
300,80.98242610725943
301,81.23504050851776
302,81.5077701187935
303,81.79665421543163
304,82.09773207577715
305,82.40704297717501
306,82.7206261969702
307,83.03452101250772
308,83.34476670113256
309,83.6499140614728
310,83.95311412404051
311,84.25730651400659
312,84.565430856542
313,84.8804267768176
314,85.20523390000437
315,85.5427918512732
316,85.89604025579499
317,86.25914242363916
318,86.62618560126798
319,86.9999953184416
320,87.38339710492022
321,87.779216490464
322,88.19027900483312
323,88.61941017778777
324,89.0694355390881
325,89.54318061849433
326,90.05688697486372
327,90.6152005067168
328,91.20355325330856
329,91.80737725389407
330,92.41210454772828
331,93.00316717406626
332,93.56599717216302
333,94.08602658127354
334,94.59420622192229
335,95.11767497980544
336,95.63614699193562
337,96.12933639532542
338,96.57695732698745
339,96.95872392393436
340,97.25435032317874
341,97.44355066173321
342,97.49294516444262
343,97.40645643727457
344,97.21975218892592
345,96.96850012809351
346,96.6883679634741
347,96.41502340376454
348,96.18413415766163
349,96.0313679338622
350,95.99239244106309
351,96.0671110592561
352,96.21963247005085
353,96.43193233457077
354,96.68598631393937
355,96.96377006928007
356,97.24725926171634
357,97.51842955237167
358,97.7592566023695
359,97.98756873093902
360,98.22817268334651
361,98.47351175977128
362,98.71602926039252
363,98.94816848538947
364,99.16237273494139
365,99.35108530922749
366,99.506749508427
367,99.62950722791973
368,99.72692455343636
369,99.8025810706826
370,99.86005636536416
371,99.90293002318667
372,99.9347816298558
373,99.9591907710773
374,99.97973703255681
375,100.0
376,100.01443416621781
377,100.0166470407668
378,100.00894773447108
379,99.99364535815477
380,99.973049022642
381,99.94946783875687
382,99.92521091732351
383,99.90258736916606
384,99.88140242956678
385,99.85937347476654
386,99.83567782702734
387,99.80949280861115
388,99.77999574178
389,99.74636394879583
390,99.70777475192064
391,99.66340547341645
392,99.61517444258791
393,99.5649174162379
394,99.51168785787578
395,99.45453923101086
396,99.39252499915241
397,99.32469862580979
398,99.25011357449229
399,99.16782330870927
400,99.07688129197
401,98.99121930570392
402,98.91755834168144
403,98.84413567892341
404,98.75918859645056
405,98.65095437328372
406,98.5076702884437
407,98.31757362095134
408,98.06890164982738
409,97.73613594840091
410,97.31954263950745
411,96.84603582642744
412,96.34252961244131
413,95.8359381008296
414,95.35317539487266
415,94.92115559785103
416,94.56679281304513
417,94.29112906418364
418,94.06910298586234
419,93.88847359766221
420,93.73699991916426
421,93.60244096994955
422,93.4725557695991
423,93.3351033376939
424,93.177842693815
425,92.98853285754339
426,92.77122767679603
427,92.54021814094452
428,92.2986189817519
429,92.04954493098121
430,91.79611072039553
431,91.54143108175788
432,91.28862074683131
433,91.04079444737889
434,90.7930335204322
435,90.54026355637335
436,90.28536566699107
437,90.0312209640741
438,89.78071055941113
439,89.53671556479094
440,89.30211709200226
441,89.07979625283383
442,88.8691146483214
443,88.66690439926992
444,88.4722523971218
445,88.28424553331949
446,88.10197069930537
447,87.9245147865219
448,87.75096468641149
449,87.5804072904166
450,87.41192948997963
451,87.24716435793502
452,87.08790786586762
453,86.93349125334542
454,86.78324575993645
455,86.63650262520865
456,86.49259308873008
457,86.35084839006869
458,86.21059976879252
459,86.10033910862268
460,86.03291413156533
461,85.98418983461612
462,85.93003121477065
463,85.84630326902455
464,85.7088709943734
465,85.49359938781286
466,85.17635344633851
467,84.7197547415151
468,84.12895307104313
469,83.44360577112172
470,82.70337017795013
471,81.94790362772751
472,81.21686345665304
473,80.54990700092593
474,79.98669159674537
475,79.56687458031054
476,79.2978044894481
477,79.14337362085176
478,79.07805494902134
479,79.07632144845661
480,79.1126460936574
481,79.16150185912348
482,79.19736171935466
483,79.19469864885073
484,79.16681789941104
485,79.14373317466409
486,79.12498012685339
487,79.11009440822238
488,79.09861167101462
489,79.0900675674736
490,79.08399774984277
491,79.07993787036567
492,79.07840677939045
493,79.08001222500462
494,79.08442320606069
495,79.0913087214112
496,79.10033776990862
497,79.11117935040551
498,79.12350246175436
499,79.1369761028077
500,79.15126927241802
501,79.16665295024887
502,79.18364294536481
503,79.20227550071982
504,79.222586859268
505,79.24461326396336
506,79.26839095775993
507,79.29395618361174
508,79.32134518447285
509,79.35127584230771
510,79.38402130371638
511,79.41895070860608
512,79.45543319688409
513,79.49283790845769
514,79.53053398323416
515,79.56789056112079
516,79.60427678202483
517,79.63959338829575
518,79.6743667874015
519,79.70890461692697
520,79.74351451445719
521,79.77850411757703
522,79.81418106387149
523,79.8508529909255
524,79.88882753632399
525,79.92841233765193
526,79.96967657259644
527,80.012363136771
528,80.05629024465031
529,80.10127611070901
530,80.14713894942172
531,80.19369697526308
532,80.2407684027077
533,80.28817144623027
534,80.337047003364
535,80.38805715926638
536,80.44030190984834
537,80.4928812510208
538,80.5448951786947
539,80.59544368878097
540,80.64362677719055
541,80.68854443983439
542,80.73002839063571
543,80.76886852971975
544,80.80560213230046
545,80.8407664735917
546,80.87489882880736
547,80.90853647316136
548,80.9422166818676
549,80.97647673013999
550,81.0118538931924
551,81.0477786054811
552,81.08344542789484
553,81.11903782529637
554,81.15473926254843
555,81.19073320451372
556,81.22720311605495
557,81.26433246203487
558,81.30230470731618
559,81.34213611991609
560,81.38408751482979
561,81.42720917738717
562,81.47055139291801
563,81.51316444675214
564,81.55409862421939
565,81.59240421064959
566,81.62713149137254
567,81.65816694017435
568,81.68637979483812
569,81.71229448668898
570,81.73643544705222
571,81.759327107253
572,81.78149389861656
573,81.80346025246814
574,81.8257506001329
575,81.84888937293611
576,81.87264171477534
577,81.8963504103073
578,81.9199063519957
579,81.94320043230437
580,81.96612354369708
581,81.9885665786376
582,82.01042042958973
583,82.03157598901723
584,82.05223961876115
585,82.07260367154973
586,82.09253802617762
587,82.11191256143948
588,82.13059715612994
589,82.14846168904363
590,82.16537603897521
591,82.18121008471931
592,82.19598673726792
593,82.20986071420835
594,82.22289960422832
595,82.23517099601553
596,82.2467424782576
597,82.25768163964229
598,82.26805606885723
599,82.27793335459015
600,82.28738108552872
601,82.2967880519971
602,82.30622990221731
603,82.31530451172364
604,82.32360975605049
605,82.33074351073222
606,82.33630365130318
607,82.33988805329774
608,82.34109459225024
609,82.33894609230012
610,82.33340673947436
611,82.32548645213879
612,82.31619514865916
613,82.30654274740127
614,82.29753916673087
615,82.29019432501377
616,82.28551814061575
617,82.28346890005514
618,82.28307261419911
619,82.28394078793659
620,82.28568492615653
621,82.28791653374789
622,82.29024711559961
623,82.29228817660066
624,82.29365122164
625,82.29394775560658
626,82.29322541461724
627,82.29190126899844
628,82.2901409749537
629,82.28811018868643
630,82.2859745664001
631,82.28389976429811
632,82.28205143858399
633,82.28059524546111
634,82.27935805951643
635,82.27810791633152
636,82.27692221360182
637,82.2758783490228
638,82.27505372028992
639,82.27452572509861
640,82.27437176114435
641,82.27466922612257
642,82.27530807587314
643,82.27616743652233
644,82.27730846119495
645,82.27879230301595
646,82.28068011511021
647,82.28303305060264
648,82.28591226261811
649,82.28937890428155
650,82.292955049918
651,82.29633219333185
652,82.29982561686688
653,82.30375060286691
654,82.30842243367576
655,82.31415639163724
656,82.32126775909514
657,82.33007181839328
658,82.34088385187547
659,82.35354454454307
660,82.36770451594705
661,82.3833939502557
662,82.40064303163723
663,82.41948194425993
664,82.43994087229207
665,82.4620499999019
666,82.48583951125767
667,82.51402988166333
668,82.54775828227937
669,82.58467994105887
670,82.6224500859549
671,82.65872394492058
672,82.69115674590897
673,82.71740371687318
674,82.73512008576627
675,82.74220747247273
676,82.7398944682184
677,82.73082675796826
678,82.7176500266874
679,82.7030099593408
680,82.68955224089356
681,82.6799225563107
682,82.67676659055729
683,82.68273002859831
684,82.69805805871364
685,82.72022080712637
686,82.74770136571652
687,82.77898282636411
688,82.81254828094914
689,82.84688082135162
690,82.88046353945154
691,82.91177952712894
692,82.94212868937144
693,82.97351280271658
694,83.00546776636929
695,83.0375294795344
696,83.06923384141678
697,83.10011675122132
698,83.12971410815288
699,83.15756181141636
700,83.18336853423763
701,83.2074411543014
702,83.23021287750072
703,83.25211690972856
704,83.27358645687796
705,83.29505472484198
706,83.3169549195136
707,83.33972024678589
708,83.36378391255185
709,83.38855883181412
710,83.41335498792543
711,83.438451189304
712,83.46412624436806
713,83.49065896153581
714,83.5183281492255
715,83.54741261585528
716,83.57819116984342
717,83.611324994481
718,83.64683192220876
719,83.68402573516939
720,83.72222021550554
721,83.76072914535993
722,83.79886630687524
723,83.83594548219415
724,83.87128045345933
725,83.90529403089012
726,83.93884333339936
727,83.97189360617011
728,84.00441009438548
729,84.03635804322843
730,84.06770269788205
731,84.0984093035294
732,84.12844310535351
733,84.15776934853744
734,84.18708662840105
735,84.2167079652823
736,84.24602024189134
737,84.2744103409384
738,84.30126514513363
739,84.32597153718721
740,84.34791639980934
741,84.3664866157102
742,84.38011496707867
743,84.38871371036697
744,84.39388893968025
745,84.39724674912367
746,84.40039323280237
747,84.40493448482155
748,84.41247659928634
749,84.42462567030191
750,84.44110037570618
751,84.46023418668166
752,84.4815553873504
753,84.50459226183439
754,84.52887309425569
755,84.5539261687363
756,84.57927976939828
757,84.60446218036363
758,84.6290016857544
759,84.65359255567867
760,84.67903724608523
761,84.70502631985713
762,84.7312503398774
763,84.75739986902906
764,84.78316547019521
765,84.80823770625886
766,84.83230714010307
767,84.85540244668768
768,84.87783061729733
769,84.89969968930231
770,84.92111770007283
771,84.94219268697918
772,84.96303268739162
773,84.98374573868034
774,85.00443987821566
775,85.02433437666504
776,85.04294536216275
777,85.06082615827921
778,85.07853008858486
779,85.09661047665007
780,85.11562064604533
781,85.136113920341
782,85.15864362310758
783,85.18376307791544
784,85.2109422997218
785,85.23942744780005
786,85.26943606219483
787,85.30118568295083
788,85.33489385011275
789,85.37077810372524
790,85.40905598383297
791,85.44994503048065
792,85.49417385107387
793,85.54184752493438
794,85.59224829998111
795,85.64465842413294
796,85.69836014530875
797,85.75263571142747
798,85.80676737040798
799,85.86003737016918
800,85.91544078921284
801,85.97512381191281
802,86.03709534499613
803,86.09936429518987
804,86.15993956922102
805,86.21683007381664
806,86.26804471570377
807,86.31159240160943
808,86.34548203826067
809,86.36506483513682
810,86.37023165129918
811,86.36580086784784
812,86.35659086588274
813,86.34742002650397
814,86.34310673081154
815,86.34846935990548
816,86.3683262948858
817,86.40318466087815
818,86.44867286284112
819,86.50229120162413
820,86.56153997807664
821,86.62391949304808
822,86.68693004738793
823,86.74807194194561
824,86.80484547757057
825,86.85805626587434
826,86.91040412004187
827,86.96223064328272
828,87.0138774388064
829,87.0656861098225
830,87.1179982595405
831,87.17115549117003
832,87.2254994079206
833,87.28137161300177
834,87.33936959136437
835,87.39942171945516
836,87.46086593772746
837,87.52304018663467
838,87.5852824066301
839,87.64693053816711
840,87.7073225216991
841,87.76579629767937
842,87.82227214331687
843,87.87734642460268
844,87.93137121516345
845,87.9846985886258
846,88.03768061861639
847,88.09066937876182
848,88.14401694268874
849,88.19807538402375
850,88.25251103932608
851,88.30683089582782
852,88.361148003165
853,88.41557541097366
854,88.4702261688898
855,88.52521332654942
856,88.58064993358859
857,88.6366490396433
858,88.69332369434957
859,88.77021196976533
860,88.87558494415548
861,88.99265517646657
862,89.10463522564514
863,89.19473765063775
864,89.2461750103909
865,89.24215986385117
866,89.16590476996508
867,88.98723216165736
868,88.70919683499429
869,88.36485989363472
870,87.98728244123748
871,87.6095255814615
872,87.26465041796558
873,86.98571805440866
874,86.80578959444954
875,86.72347412076432
876,86.7065506612214
877,86.74183523726803
878,86.81614387035142
879,86.91629258191885
880,87.02909739341756
881,87.14137432629478
882,87.23993940199782
883,87.31160864197385
884,87.36580481092463
885,87.42035917082683
886,87.47470048904007
887,87.52825753292406
888,87.58045906983844
889,87.63073386714291
890,87.67851069219712
891,87.72321831236073
892,87.76488644714875
893,87.80407186458221
894,87.84099390477984
895,87.87587190786034
896,87.90892521394238
897,87.94037316314474
898,87.97043509558608
899,87.99933035138513
900,88.02650766716232
901,88.05153291177206
902,88.0748011236839
903,88.09670734136749
904,88.11764660329239
905,88.13801394792819
906,88.15820441374451
907,88.17861303921093
908,88.19963486279705
909,88.22099312080516
910,88.24214903329597
911,88.26310461437669
912,88.28386187815457
913,88.30442283873681
914,88.32478951023066
915,88.34496390674335
916,88.36494804238208
917,88.38484729099295
918,88.40470489459834
919,88.42442966956995
920,88.44393043227947
921,88.46311599909859
922,88.48189518639902
923,88.50017681055246
924,88.5178696879306
925,88.53473613916678
926,88.55075304218312
927,88.56615104928443
928,88.58116081277558
929,88.59601298496135
930,88.6109382181466
931,88.62616716463617
932,88.64193047673487
933,88.65845880674753
934,88.67569562878339
935,88.69338592861651
936,88.71146262604891
937,88.72985864088268
938,88.74850689291989
939,88.76734030196258
940,88.78629178781283
941,88.80529427027268
942,88.8240513902021
943,88.84250002244386
944,88.86092293777425
945,88.87960290696958
946,88.89882270080618
947,88.91886509006031
948,88.9400128455083
949,88.96254873792647
950,88.985395232042
951,89.00772888555291
952,89.03021360869175
953,89.05351331169105
954,89.07829190478324
955,89.10521329820094
956,89.13494140217661
957,89.16814012694279
958,89.205473382732
959,89.24786617171426
960,89.29511963804835
961,89.34621190494978
962,89.40012109563415
963,89.45582533331698
964,89.51230274121386
965,89.56853144254032
966,89.62348956051191
967,89.67830687391194
968,89.73444078963267
969,89.79136087305324
970,89.84853668955272
971,89.9054378045102
972,89.96153378330477
973,90.0162941913156
974,90.06918859392168
975,90.12047471264195
976,90.17079491629674
977,90.2201957412174
978,90.26872372373519
979,90.31642540018149
980,90.36334730688756
981,90.40953598018476
982,90.45503795640438
983,90.49989977187776
984,90.54414041734755
985,90.58769309244894
986,90.63047564685195
987,90.67240593022665
988,90.7134017922431
989,90.75338108257134
990,90.79226165088143
991,90.82996134684342
992,90.86580459755001
993,90.89958011016466
994,90.93190215446366
995,90.9633850002232
996,90.99464291721954
997,91.02629017522894
998,91.05894104402762
999,91.09320979339182
1000,91.14325200042782
1001,91.2155658703493
1002,91.29927961509355
1003,91.38352144659791
1004,91.4574195767997
1005,91.51010221763626
1006,91.53069758104492
1007,91.508333878963
1008,91.43213932332783
1009,91.27429029798901
1010,91.03310591408722
1011,90.7369284744964
1012,90.41410028209052
1013,90.09296363974349
1014,89.80186085032926
1015,89.5691342167218
1016,89.42312604179504
1017,89.36840082578043
1018,89.37992211365909
1019,89.44163077542953
1020,89.53746768109029
1021,89.65137370063984
1022,89.76728970407669
1023,89.86915656139935
1024,89.94091514260633
1025,89.98978417618811
1026,90.0341867583204
1027,90.07487031052948
1028,90.11258225434163
1029,90.14807001128318
1030,90.18208100288041
1031,90.21536265065963
1032,90.24866237614711
1033,90.2827276008692
1034,90.31673420073206
1035,90.34951991867445
1036,90.38132497677148
1037,90.41238959709831
1038,90.44295400173
1039,90.47325841274171
1040,90.50354305220853
1041,90.53404814220558
1042,90.5644901363149
1043,90.5945187317144
1044,90.624274015873
1045,90.65389607625961
1046,90.68352500034315
1047,90.71330087559252
1048,90.74336378947667
1049,90.7738538294645
1050,90.80396121118928
1051,90.83314724987149
1052,90.86195868236076
1053,90.89094224550676
1054,90.92064467615913
1055,90.95161271116756
1056,90.98439308738168
1057,91.01953254165115
1058,91.05757781082562
1059,91.09920864072569
1060,91.14420830552264
1061,91.19177883459216
1062,91.24112225731002
1063,91.29144060305191
1064,91.34193590119355
1065,91.39181018111067
1066,91.44026547217898
1067,91.50811682622383
1068,91.6050449517649
1069,91.71355036321947
1070,91.81613357500478
1071,91.89529510153808
1072,91.93353545723664
1073,91.91335515651772
1074,91.81725471379856
1075,91.61399322040428
1076,91.30684789221974
1077,90.93009643050165
1078,90.51801653650685
1079,90.10488591149209
1080,89.72498225671414
1081,89.41258327342979
1082,89.20196666289581
1083,89.0914527047856
1084,89.04753995526556
1085,89.05677353033205
1086,89.10569854598145
1087,89.18086011821006
1088,89.26880336301426
1089,89.35607339639039
1090,89.4292153343348
1091,89.47477429284382
1092,89.50180505884927
1093,89.5282598048224
1094,89.5540297250686
1095,89.57900601389339
1096,89.60307986560223
1097,89.62614247450055
1098,89.64808503489385
1099,89.66879874108758
1100,89.68791981622988
1101,89.7053959804266
1102,89.72158567341992
1103,89.73684733495193
1104,89.75153940476476
1105,89.76602032260053
1106,89.78064852820134
1107,89.79578246130933
1108,89.81137662462643
1109,89.82708224618617
1110,89.84280285372813
1111,89.85844197499186
1112,89.87390313771688
1113,89.88908986964275
1114,89.90390569850902
1115,89.91825415205527
1116,89.932038758021
1117,89.9452313853712
1118,89.95790779758775
1119,89.97012736418563
1120,89.98194945467978
1121,89.99343343858516
1122,90.00463868541672
1123,90.01562456468942
1124,90.0264504459182
1125,90.03720750175532
1126,90.0478782637994
1127,90.05835913998497
1128,90.06854653824654
1129,90.07833686651864
1130,90.08762653273583
1131,90.09631194483258
1132,90.10428951074346
1133,90.12661125265336
1134,90.1709130075132
1135,90.22596690540647
1136,90.28054507641669
1137,90.3234196506274
1138,90.34336275812205
1139,90.32914652898424
1140,90.26954309329739
1141,90.15332458114507
1142,89.95208053535973
1143,89.66417759980706
1144,89.31855355612055
1145,88.94414618593358
1146,88.56989327087965
1147,88.22473259259215
1148,87.93760193270455
1149,87.73743907285025
1150,87.6268041271646
1151,87.57923449538808
1152,87.58013388756171
1153,87.61490601372667
1154,87.66895458392399
1155,87.72768330819481
1156,87.7764958965802
1157,87.80079605912127
1158,87.80762892117704
1159,87.81390212444245
1160,87.81981315346258
1161,87.82555949278242
1162,87.83133862694699
1163,87.83734804050134
1164,87.84378521799049
1165,87.85084764395943
1166,87.8587328029532
1167,87.86742708919543
1168,87.87673306035148
1169,87.88657244612907
1170,87.89686697623584
1171,87.9075383803795
1172,87.91850838826774
1173,87.9296987296082
1174,87.9410311341086
1175,87.946525101836
1176,87.94369210452616
1177,87.93769182938968
1178,87.93368396363721
1179,87.93682819447936
1180,87.95228420912679
1181,87.98521169479012
1182,88.04077033868002
1183,88.12672800154904
1184,88.24184913162088
1185,88.37778829731288
1186,88.52620006704234
1187,88.67873900922659
1188,88.82705969228297
1189,88.96281668462876
1190,89.07766455468132
1191,89.16325787085796
1192,89.2178995800844
1193,89.2491565037472
1194,89.26257902195493
1195,89.26371751481614
1196,89.25812236243934
1197,89.2513439449331
1198,89.24893264240598
1199,89.25643883496652
1200,89.2849104340119
1201,89.33379618241844
1202,89.39124770751353
1203,89.44541663662447
1204,89.4844545970786
1205,89.49651321620328
1206,89.46974412132583
1207,89.39229893977361
1208,89.24794125114592
1209,89.04027298682807
1210,88.78720330182651
1211,88.50664135114758
1212,88.21649628979769
1213,87.93467727278328
1214,87.67909345511069
1215,87.46765399178634
1216,87.31826803781661
1217,87.23365849849473
1218,87.19716733272568
1219,87.1976322759335
1220,87.22389106354223
1221,87.26478143097594
1222,87.30914111365864
1223,87.34580784701438
1224,87.36361936646723
1225,87.36740406419968
1226,87.3698619793146
1227,87.37163831761681
1228,87.37337828491091
1229,87.37572708700162
1230,87.37932992969365
1231,87.38483201879166
1232,87.39287856010037
1233,87.40446890490686
1234,87.41947048161143
1235,87.43683061168852
1236,87.4554966166126
1237,87.47441581785814
1238,87.49253553689961
1239,87.5088030952115
1240,87.52216581426828
1241,87.53157101554437
1242,87.52888709326821
1243,87.51166573101452
1244,87.48737918427736
1245,87.46349970855074
1246,87.44749955932869
1247,87.44685099210527
1248,87.46902626237447
1249,87.52149762563035
1250,87.6159399321649
1251,87.75024025544235
1252,87.91118918571489
1253,88.08557731323482
1254,88.26019522825433
1255,88.42183352102573
1256,88.55728278180125
1257,88.65333360083312
1258,88.71261192540695
1259,88.74902220917961
1260,88.76627280196027
1261,88.76807205355803
1262,88.75812831378211
1263,88.74014993244164
1264,88.71784525934576
1265,88.69492264430363
1266,88.67509043712442
1267,88.65170074068809
1268,88.61786500791372
1269,88.57693061366926
1270,88.53224493282262
1271,88.48715534024171
1272,88.44500921079444
1273,88.40915391934874
1274,88.3829368407725
1275,88.36510463784701
1276,88.3519321899853
1277,88.34305919700289
1278,88.33812535871525
1279,88.3367703749379
1280,88.33863394548636
1281,88.34335577017612
1282,88.35057554882273
1283,88.36219476708415
1284,88.37940837478448
1285,88.40079626798841
1286,88.4249383427606
1287,88.45041449516576
1288,88.47580462126854
1289,88.49968861713364
1290,88.52064637882573
1291,88.53725780240948
1292,88.5414590297732
1293,88.53122805929274
1294,88.51420757176415
1295,88.49804024798354
1296,88.49036876874693
1297,88.49883581485042
1298,88.53108406709005
1299,88.59475620626189
1300,88.70259120630193
1301,88.85276988385311
1302,89.03109768377203
1303,89.22338005091525
1304,89.41542243013932
1305,89.59303026630081
1306,89.74200900425627
1307,89.8481640888623
1308,89.9118313982849
1309,89.94672293775096
1310,89.95870834270814
1311,89.95365724860427
1312,89.93743929088706
1313,89.9159241050042
1314,89.8949813264035
1315,89.88048059053268
1316,89.8782915328395
1317,89.88449875520695
1318,89.89129553109018
1319,89.8987145032952
1320,89.90678831462792
1321,89.91554960789435
1322,89.92503102590044
1323,89.93526521145216
1324,89.94628480735548
1325,89.95848545488256
1326,89.972005626192
1327,89.98649221041934
1328,90.0015920967002
1329,90.01695217417017
1330,90.03221933196481
1331,90.04704045921973
1332,90.06106244507052
1333,90.07731545969482
1334,90.09764412378762
1335,90.11991700226058
1336,90.14200266002524
1337,90.1617696619933
1338,90.17708657307632
1339,90.18582195818594
1340,90.1858443822338
1341,90.17502241013145
1342,90.14428509137585
1343,90.09174275324965
1344,90.02603587734319
1345,89.95580494524674
1346,89.8896904385506
1347,89.83633283884508
1348,89.80437262772047
1349,89.80245028676707
1350,89.83719053387696
1351,89.90320350377509
1352,89.99110780330092
1353,90.09152203929396
1354,90.19506481859369
1355,90.29235474803964
1356,90.3740104344713
1357,90.43065048472815
1358,90.46354180751075
1359,90.48217802259173
1360,90.48951780341866
1361,90.48851982343912
1362,90.48214275610063
1363,90.47334527485081
1364,90.46508605313721
1365,90.46032376440742
1366,90.462017082109
1367,90.4683460454591
1368,90.47545033216055
1369,90.48322807338951
1370,90.4915774003221
1371,90.50039644413445
1372,90.5095833360027
1373,90.519036207103
1374,90.52865318861146
1375,90.53804844179322
1376,90.54715362511799
1377,90.55634311556874
1378,90.56599129012841
1379,90.57647252577998
1380,90.5881611995064
1381,90.60143168829063
1382,90.61665836911564
1383,90.63500742080514
1384,90.65668174746989
1385,90.68061081402337
1386,90.70572408537909
1387,90.73095102645051
1388,90.75522110215118
1389,90.77746377739456
1390,90.79660851709413
1391,90.81158478616342
1392,90.8357712010384
1393,90.87595056026593
1394,90.9211586019258
1395,90.96043106409783
1396,90.98280368486182
1397,90.9773122022976
1398,90.93299235448495
1399,90.83887987950371
1400,90.67367505742405
1401,90.43869159105722
1402,90.15688535259457
1403,89.85121221422739
1404,89.54462804814702
1405,89.26008872654481
1406,89.02055012161206
1407,88.84896810554012
1408,88.7443113075678
1409,88.68419624830928
1410,88.6595506370188
1411,88.66130218295083
1412,88.68037859535963
1413,88.70770758349956
1414,88.73421685662495
1415,88.75083412399017
1416,88.74848709484952
1417,88.73264498170046
1418,88.71512676181061
1419,88.69638479158965
1420,88.67687142744721
1421,88.65703902579298
1422,88.63733994303661
1423,88.61822653558772
1424,88.60015115985601
1425,88.58329979879555
1426,88.56732134375845
1427,88.55186251375133
1428,88.53657002778083
1429,88.52109060485357
1430,88.50507096397622
1431,88.48815782415538
1432,88.46999790439772
1433,88.45030574561626
1434,88.4292807363526
1435,88.40729686705615
1436,88.38472812817643
1437,88.3619485101628
1438,88.33933200346479
1439,88.3172525985318
1440,88.2960842858133
1441,88.2762010557587
1442,88.25774376157533
1443,88.24040015161086
1444,88.22386455902532
1445,88.20783131697881
1446,88.19199475863137
1447,88.17604921714306
1448,88.15968902567398
1449,88.14260851738415
1450,88.12438765030274
1451,88.10513751771835
1452,88.08534915568028
1453,88.0655136002378
1454,88.04612188744018
1455,88.0276650533367
1456,88.01063413397664
1457,87.99552016540927
1458,87.98249969421369
1459,87.97118036181821
1460,87.96119984654604
1461,87.95219582672028
1462,87.9438059806641
1463,87.93566798670066
1464,87.92741952315312
1465,87.91869826834461
1466,87.90914190059831
1467,87.90931021483792
1468,87.92410446720703
1469,87.94467452785867
1470,87.96217026694586
1471,87.96774155462163
1472,87.95253826103898
1473,87.90771025635095
1474,87.82440741071056
1475,87.68612105123701
1476,87.4942047275023
1477,87.26660164333869
1478,87.02125500257843
1479,86.77610800905376
1480,86.54910386659697
1481,86.35818577904024
1482,86.22129695021587
1483,86.13760076572413
1484,86.08956087265743
1485,86.07007086708636
1486,86.07202434508147
1487,86.08831490271328
1488,86.1118361360523
1489,86.13548164116915
1490,86.1521450141343
1491,86.15471985101836
1492,86.14801182207783
1493,86.1415297426742
1494,86.13522192653534
1495,86.12903668738909
1496,86.12292233896338
1497,86.11682719498603
1498,86.11069956918497
1499,86.10448777528805
1500,86.09799949075116
1501,86.09120151664791
1502,86.08428085213272
1503,86.07742449636001
1504,86.07081944848422
1505,86.06465270765977
1506,86.05911127304108
1507,86.05438214378259
1508,86.0506664598642
1509,86.04787232970169
1510,86.0457472051032
1511,86.0440385378769
1512,86.04249377983099
1513,86.04086038277364
1514,86.03888579851301
1515,86.03631747885726
1516,86.03352221736998
1517,86.03091971394605
1518,86.0283367798907
1519,86.02560022650906
1520,86.0225368651063
1521,86.01897350698765
1522,86.01473696345825
1523,86.00965404582328
1524,86.00355156538794
1525,85.99641296203117
1526,85.98838853199773
1527,85.97955537114134
1528,85.9699905753158
1529,85.95977124037486
1530,85.9489744621723
1531,85.93767733656189
1532,85.92595695939741
1533,85.9252914067193
1534,85.9405264293508
1535,85.96179063531996
1536,85.97921263265474
1537,85.98292102938318
1538,85.96304443353324
1539,85.90971145313296
1540,85.81305069621033
1541,85.65699463882105
1542,85.4433048354276
1543,85.188853511668
1544,84.91051289318042
1545,84.6251552056029
1546,84.34965267457353
1547,84.10087752573041
1548,83.89570198471164
1549,83.75099827715529
1550,83.67016859237884
1551,83.63794989592797
1552,83.64321657778306
1553,83.67484302792445
1554,83.72170363633253
1555,83.7726727929877
1556,83.8166248878703
1557,83.84243431096074
1558,83.85601740528493
1559,83.87050556549174
1560,83.88559575899589
1561,83.90098495321217
1562,83.9163701155553
1563,83.93144821344004
1564,83.94591621428111
1565,83.95947108549332
1566,83.97183834825155
1567,83.98316987843866
1568,83.99380217553126
1569,84.00407173900597
1570,84.01431506833937
1571,84.02486866300805
1572,84.03606902248865
1573,84.04825264625774
1574,84.06175603379197
1575,84.07683622901907
1576,84.09327396910446
1577,84.11069129338118
1578,84.12871024118233
1579,84.14695285184095
1580,84.16504116469012
1581,84.18259721906287
1582,84.19924305429228
1583,84.21543373421643
1584,84.23172424873444
1585,84.24788652627093
1586,84.26369249525052
1587,84.2789140840978
1588,84.29332322123743
1589,84.306691835094
1590,84.31879185409213
1591,84.32939448275582
1592,84.33861906883475
1593,84.34675975559185
1594,84.3541106862902
1595,84.36096600419275
1596,84.36761985256253
1597,84.37436637466256
1598,84.38149971375583
1599,84.38931401310535
1600,84.40558550610932
1601,84.43334202391515
1602,84.46575510640963
1603,84.49599629347955
1604,84.51723712501173
1605,84.52264914089297
1606,84.50540388101007
1607,84.45867288524984
1608,84.37046671111322
1609,84.24215032144652
1610,84.08692686415456
1611,83.91799948714223
1612,83.74857133831433
1613,83.59184556557574
1614,83.46102531683128
1615,83.36931373998583
1616,83.31592045456463
1617,83.28787228960117
1618,83.28009820726254
1619,83.28752716971583
1620,83.30508813912812
1621,83.32771007766654
1622,83.35032194749816
1623,83.36785271079007
1624,83.37523132970938
1625,83.37594573957985
1626,83.37680292605424
1627,83.3777104267931
1628,83.378575779457
1629,83.37930652170651
1630,83.37981019120221
1631,83.37999432560467
1632,83.37976646257445
1633,83.37894928933113
1634,83.37755487405396
1635,83.3757748258431
1636,83.37380075379865
1637,83.37182426702074
1638,83.37003697460949
1639,83.36863048566504
1640,83.36779640928748
1641,83.36724321146748
1642,83.36664245396783
1643,83.36613038954692
1644,83.36584327096308
1645,83.36591735097466
1646,83.36648888234001
1647,83.3676941178175
1648,83.36966931016548
1649,83.3725507121423
1650,83.37618381309099
1651,83.38038228546334
1652,83.38523465668085
1653,83.390829454165
1654,83.39725520533729
1655,83.40460043761924
1656,83.41295367843232
1657,83.42240345519802
1658,83.43678152093777
1659,83.45764574368789
1660,83.48167382339223
1661,83.50554345999467
1662,83.52593235343907
1663,83.53951820366929
1664,83.54297871062919
1665,83.53299157426264
1666,83.50503683175036
1667,83.460119678861
1668,83.40320555342036
1669,83.3392598932542
1670,83.27324813618824
1671,83.21013572004833
1672,83.15488808266015
1673,83.11247066184956
1674,83.08784889544226
1675,83.08248613555027
1676,83.09208853078808
1677,83.11298571373526
1678,83.14150731697138
1679,83.17398297307601
1680,83.20674231462868
1681,83.23611497420902
1682,83.25843058439655
1683,83.27503970835997
1684,83.29001674690535
1685,83.30377708906826
1686,83.31673612388433
1687,83.32930924038905
1688,83.34191182761808
1689,83.35495927460698
1690,83.36886697039131
1691,83.38298334935197
1692,83.39659719057084
1693,83.41003440013482
1694,83.42362088413095
1695,83.43768254864618
1696,83.4525452997675
1697,83.46853504358192
1698,83.48597768617638
1699,83.50519913363789
1700,83.52687162438703
1701,83.55098208491859
1702,83.57682845343098
1703,83.60370866812252
1704,83.6309206671916
1705,83.65776238883656
1706,83.68353177125577
1707,83.70752675264761
1708,83.72987602367078
1709,83.75130336775202
1710,83.77199936224167
1711,83.79215458449013
1712,83.81195961184777
1713,83.83160502166496
1714,83.85128139129208
1715,83.87117929807945
1716,83.89101121039558
1717,83.91046133573563
1718,83.92967786014012
1719,83.94880896964948
1720,83.96800285030423
1721,83.98740768814481
1722,84.00717166921176
1723,84.02744297954548
1724,84.04836980518654
1725,84.06996785994738
1726,84.09210146234432
1727,84.11469170547346
1728,84.13765968243092
1729,84.16092648631287
1730,84.18441321021544
1731,84.20804094723474
1732,84.23173079046691
1733,84.261683308957
1734,84.3006310388708
1735,84.3432930239857
1736,84.38438830807905
1737,84.41863593492818
1738,84.44075494831043
1739,84.44546439200322
1740,84.4274833097838
1741,84.37921042574338
1742,84.30207178213738
1743,84.2043273999896
1744,84.09423730032381
1745,83.98006150416383
1746,83.87006003253344
1747,83.77249290645642
1748,83.6956201469566
1749,83.64770177505774
1750,83.63035849528977
1751,83.63607562371986
1752,83.6594100986777
1753,83.69491885849301
1754,83.73715884149546
1755,83.78068698601474
1756,83.82006023038059
1757,83.84983551292268
1758,83.87256080642331
1759,83.89451196747524
1760,83.91583776012368
1761,83.93668694841398
1762,83.95720829639143
1763,83.97755056810125
1764,83.99786252758878
1765,84.01829293889928
1766,84.03841160844745
1767,84.05787066929504
1768,84.07694237545788
1769,84.09589898095186
1770,84.11501273979277
1771,84.1345559059965
1772,84.15480073357891
1773,84.17601947655582
1774,84.19848438894311
1775,84.22257777255282
1776,84.24820331186086
1777,84.27491533487883
1778,84.30226816961832
1779,84.32981614409096
1780,84.35711358630832
1781,84.38371482428205
1782,84.40917418602373
1783,84.43391543713298
1784,84.45854464095095
1785,84.48288957210158
1786,84.50677800520879
1787,84.53003771489652
1788,84.55249647578873
1789,84.57398206250929
1790,84.59432224968216
1791,84.61319242271432
1792,84.6306119908277
1793,84.64692476436869
1794,84.6624745536837
1795,84.6776051691191
1796,84.6926604210213
1797,84.70798411973671
1798,84.7239200756117
1799,84.74081209899268
1800,84.76567493924905
1801,84.80116432265767
1802,84.8410855249261
1803,84.87924382176189
1804,84.90944448887262
1805,84.9254928019658
1806,84.92119403674903
1807,84.89035346892987
1808,84.82207102642326
1809,84.71757498718559
1810,84.58886315198647
1811,84.44793332159556
1812,84.30678329678253
1813,84.177410878317
1814,84.07181386696861
1815,84.00199006350704
1816,83.96744742077544
1817,83.95650368467687
1818,83.96437134557068
1819,83.98626289381623
1820,84.01739081977291
1821,84.05296761380009
1822,84.08820576625718
1823,84.11831776750347
1824,84.1385161078984
1825,84.15212743173727
1826,84.16558083566649
1827,84.17874248857204
1828,84.19147855933983
1829,84.20365521685585
1830,84.21513863000604
1831,84.22579496767639
1832,84.23549039875282
1833,84.24401229680741
1834,84.25139699443201
1835,84.25788409904233
1836,84.26371321805402
1837,84.26912395888284
1838,84.27435592894442
1839,84.27964873565445
1840,84.28524198642866
1841,84.29095889003017
1842,84.29649415797697
1843,84.30189465181702
1844,84.3072072330983
1845,84.31247876336865
1846,84.31775610417614
1847,84.32308611706861
1848,84.32851566359409
1849,84.33409160530047
1850,84.33972669133189
1851,84.34533631656004
1852,84.35097131112427
1853,84.35668250516393
1854,84.3625207288184
1855,84.36853681222702
1856,84.3747815855291
1857,84.38130587886407
1858,84.38820530744486
1859,84.39547243956345
1860,84.40300353497747
1861,84.41069485344467
1862,84.41844265472272
1863,84.42614319856935
1864,84.43369274474225
1865,84.44098755299909
1866,84.45228424309023
1867,84.46980849337714
1868,84.49041015153432
1869,84.51093906523619
1870,84.52824508215723
1871,84.53917804997192
1872,84.54058781635472
1873,84.52932422898006
1874,84.50223713552242
1875,84.45129030966375
1876,84.37599969965284
1877,84.28454341501447
1878,84.1850995652735
1879,84.08584625995475
1880,83.99496160858295
1881,83.92062372068298
1882,83.87101070577963
1883,83.84672240012866
1884,83.84022720067323
1885,83.84750605796916
1886,83.8645399225723
1887,83.8873097450385
1888,83.9117964759236
1889,83.93398106578341
1890,83.94984446517381
1891,83.96146505368128
1892,83.97355567127649
1893,83.98604895909146
1894,83.99887755825833
1895,84.0119741099091
1896,84.02527125517585
1897,84.03870163519065
1898,84.05219789108557
1899,84.06569266399268
1900,84.07948599196348
1901,84.09378178755128
1902,84.1083685036408
1903,84.12303459311681
1904,84.13756850886402
1905,84.15175870376714
1906,84.16539363071094
1907,84.17826174258013
1908,84.19051076343821
1909,84.20240547704118
1910,84.21390992581264
1911,84.22498815217614
1912,84.23560419855521
1913,84.2457221073734
1914,84.2553059210543
1915,84.26431968202144
1916,84.27258684480238
1917,84.28006626786762
1918,84.28692509955516
1919,84.29333048820298
1920,84.2994495821491
1921,84.30544952973145
1922,84.31149747928806
1923,84.31776057915692
1924,84.32440597767602
1925,84.33121033984689
1926,84.33790455724375
1927,84.34458711806363
1928,84.35135651050356
1929,84.35831122276055
1930,84.36554974303162
1931,84.3731705595138
1932,84.38127216040411
1933,84.39265856986955
1934,84.40843771427028
1935,84.42616393509296
1936,84.44339157382427
1937,84.45767497195098
1938,84.46656847095971
1939,84.46762641233721
1940,84.45840313757013
1941,84.43472348561076
1942,84.39712730030845
1943,84.35024143049554
1944,84.29869272500436
1945,84.24710803266724
1946,84.2001142023165
1947,84.16233808278449
1948,84.13840652290352
1949,84.12814773927597
1950,84.12706419696977
1951,84.13329411751556
1952,84.14497572244404
1953,84.16024723328583
1954,84.17724687157163
1955,84.1941128588321
1956,84.20898341659789
1957,84.21999676639969
1958,84.22828964893765
1959,84.23629490013352
1960,84.24409488435046
1961,84.25177196595162
1962,84.25940850930014
1963,84.26708687875916
1964,84.27488943869179
1965,84.28289855346121
1966,84.29115582782732
1967,84.29960065015091
1968,84.30816206019644
1969,84.31676909772831
1970,84.32535080251094
1971,84.3338362143088
1972,84.34215437288631
1973,84.3502343180079
1974,84.3579433396761
1975,84.36528346161914
1976,84.37238582418996
1977,84.37938156774156
1978,84.3864018326269
1979,84.3935777591989
1980,84.40104048781059
1981,84.40892115881492
1982,84.41735091256483
1983,84.42650956851568
1984,84.43634704994663
1985,84.44664965294642
1986,84.45720367360373
1987,84.46779540800726
1988,84.47821115224575
1989,84.4882372024079
1990,84.4976598545824
1991,84.50657656796055
1992,84.51523263830174
1993,84.52363611654685
1994,84.5317950536368
1995,84.53971750051241
1996,84.5474115081146
1997,84.55488512738424
1998,84.5621464092622
1999,84.57063966264275
2000,84.58108593293346
2001,84.5924083758453
2002,84.60353014708916
2003,84.61337440237594
2004,84.6208642974166
2005,84.62492298792203
2006,84.62447362960316
2007,84.6184393781709
2008,84.60387722650631
2009,84.58053146541354
2010,84.55135619748825
2011,84.51930552532602
2012,84.48733355152251
2013,84.4583943786733
2014,84.43544210937407
2015,84.42143084622039
2016,84.41688907558232
2017,84.41922986057502
2018,84.42673416891171
2019,84.43768296830571
2020,84.45035722647026
2021,84.46303791111865
2022,84.47400598996413
2023,84.48154243071994
2024,84.48600527009675
2025,84.48916504449826
2026,84.49142147117723
2027,84.49317426738652
2028,84.49482315037889
2029,84.49676783740719
2030,84.49940804572422
2031,84.5031434925828
2032,84.50837389523574
2033,84.51522952110037
2034,84.52337228770814
2035,84.5324993874831
2036,84.5423080128492
2037,84.55249535623047
2038,84.5627586100509
2039,84.57279496673448
2040,84.58230161870524
2041,84.59166204210085
2042,84.60132897200508
2043,84.61110348926104
2044,84.62078667471188
2045,84.63017960920072
2046,84.63908337357071
2047,84.64729904866492
2048,84.65462771532651
2049,84.66093011870889
2050,84.66633440385212
2051,84.67104275142933
2052,84.67525734211367
2053,84.67918035657823
2054,84.68301397549617
2055,84.6869603795406
2056,84.69122174938465
2057,84.69600026570147
2058,84.70124836508498
2059,84.70673788293423
2060,84.7124000981302
2061,84.71816628955379
2062,84.7239677360859
2063,84.72973571660748
2064,84.73540150999939
2065,84.74089639514258
2066,84.74628094526004
2067,84.75164656898933
2068,84.75697079833323
2069,84.76223116529442
2070,84.76740520187572
2071,84.77247044007986
2072,84.77740441190957
2073,84.78218464936764
2074,84.78203376041562
2075,84.77458687491264
2076,84.76344030770767
2077,84.75219037364975
2078,84.74443338758789
2079,84.7437656643711
2080,84.75378351884835
2081,84.77808326586872
2082,84.82026122028118
2083,84.88923838434852
2084,84.98545210459247
2085,85.09977321225058
2086,85.22307253856039
2087,85.34622091475939
2088,85.46008917208509
2089,85.55554814177503
2090,85.62346865506673
2091,85.66297956850934
2092,85.6824019813501
2093,85.68639508887365
2094,85.67961808636464
2095,85.66673016910771
2096,85.65239053238751
2097,85.6412583714887
2098,85.63799288169592
2099,85.64024009679457
2100,85.64254928951009
2101,85.64493451353688
2102,85.64740982256957
2103,85.64998927030271
2104,85.65268691043077
2105,85.65551679664836
2106,85.65849298264997
2107,85.66162952213018
2108,85.66490938141638
2109,85.66831526051978
2110,85.67186081366043
2111,85.67555969505848
2112,85.67942555893404
2113,85.68347205950724
2114,85.68771285099815
2115,85.69216158762694
2116,85.69702248815867
2117,85.70237007090205
2118,85.70802343939272
2119,85.71380169716623
2120,85.71952394775822
2121,85.72500929470422
2122,85.73007684153991
2123,85.7345456918008
2124,85.7393790931211
2125,85.74523274670108
2126,85.75146443642532
2127,85.75743194617854
2128,85.76249305984537
2129,85.76600556131048
2130,85.76732723445855
2131,85.76581586317423
2132,85.76082923134219
2133,85.75019923347466
2134,85.7335912354722
2135,85.71311322830171
2136,85.69087320293019
2137,85.66897915032462
2138,85.64953906145199
2139,85.6346609272793
2140,85.62645273877348
2141,85.62538090536124
2142,85.62963770635206
2143,85.63791993753728
2144,85.64892439470822
2145,85.66134787365613
2146,85.67388717017235
2147,85.68523908004813
2148,85.69410039907483
2149,85.7010433549088
2150,85.70755751478725
2151,85.71371568387252
2152,85.71959066732704
2153,85.72525527031318
2154,85.73078229799334
2155,85.73624455552992
2156,85.74171484808534
2157,85.74726598082195
2158,85.75277344087257
2159,85.75810528028553
2160,85.76332315159654
2161,85.76848870734122
2162,85.77366360005527
2163,85.7789094822744
2164,85.78428800653428
2165,85.78986082537058
2166,85.79563882612133
2167,85.8015679580879
2168,85.80761246675097
2169,85.81373659759122
2170,85.81990459608933
2171,85.82608070772602
2172,85.83222917798196
2173,85.83831425233782
2174,85.84439857267668
2175,85.8505463406115
2176,85.85672414121782
2177,85.86289855957125
2178,85.86903618074726
2179,85.87510358982146
2180,85.88106737186942
2181,85.88689411196667
2182,85.89255039518878
2183,85.8981864526016
2184,85.90389797409378
2185,85.90956973297494
2186,85.9150865025548
2187,85.92033305614301
2188,85.92519416704924
2189,85.92955460858316
2190,85.93329915405442
2191,85.93648007695445
2192,85.93922951991321
2193,85.94155205994818
2194,85.9434522740769
2195,85.94493473931689
2196,85.94600403268566
2197,85.94666473120073
2198,85.94692141187959
2199,85.95354492115152
2200,85.9699279212484
2201,85.99100771289164
2202,86.01172159680272
2203,86.027006873703
2204,86.03180084431398
2205,86.02104080935703
2206,85.98966406955361
2207,85.93260792562516
2208,85.83728582010082
2209,85.7030517940623
2210,85.54275404605977
2211,85.3692407746434
2212,85.19536017836339
2213,85.0339604557699
2214,84.89788980541313
2215,84.79999642584325
2216,84.74145824233594
2217,84.71054370043773
2218,84.70073677910513
2219,84.70552145729461
2220,84.71838171396267
2221,84.73280152806582
2222,84.74226487856052
2223,84.74025574440329
2224,84.72994113336674
2225,84.71889458111535
2226,84.70720985844346
2227,84.69498073614547
2228,84.68230098501559
2229,84.66926437584824
2230,84.6559646794377
2231,84.64249566657834
2232,84.62895110806446
2233,84.61513114485184
2234,84.60084249102118
2235,84.58618877705419
2236,84.5712736334325
2237,84.55620069063784
2238,84.54107357915187
2239,84.5259959294563
2240,84.5110713720328
2241,84.49604298747319
2242,84.48070197176281
2243,84.46522412847371
2244,84.44978526117787
2245,84.4345611734473
2246,84.41972766885404
2247,84.40546055097009
2248,84.3919356233675
2249,84.37932859645724
2250,84.36755369482802
2251,84.3563944933184
2252,84.34563456676702
2253,84.33505749001239
2254,84.32444683789313
2255,84.31358618524779
2256,84.30225910691495
2257,84.2902491777332
2258,84.28035102612404
2259,84.27398015251364
2260,84.26885143974768
2261,84.26267977067175
2262,84.25318002813152
2263,84.23806709497259
2264,84.2150558540406
2265,84.1818611881812
2266,84.13370170927922
2267,84.0707045530514
2268,83.99794738809116
2269,83.92050788299191
2270,83.8434637063471
2271,83.77189252675012
2272,83.71087201279441
2273,83.66547983307339
2274,83.63565553146464
2275,83.61651530721724
2276,83.60590181198195
2277,83.60165769740948
2278,83.60162561515048
2279,83.60364821685576
2280,83.60556815417598
2281,83.60522807876187
2282,83.60047064226417
2283,83.59251278570049
2284,83.58413246785913
2285,83.57551386704682
2286,83.56684116157022
2287,83.55829852973605
2288,83.55007014985102
2289,83.5423402002218
2290,83.53529285915512
2291,83.52892713514677
2292,83.52306719535525
2293,83.51763495608128
2294,83.51255233362558
2295,83.50774124428887
2296,83.50312360437186
2297,83.49862133017531
2298,83.49415633799991
2299,83.48981551412018
2300,83.48570922779993
2301,83.48179461982383
2302,83.4780288309766
2303,83.47436900204289
2304,83.4707722738074
2305,83.46719578705483
2306,83.46359668256986
2307,83.45993210113717
2308,83.45610302627469
2309,83.45211264538767
2310,83.44807140509182
2311,83.44408975200278
2312,83.44027813273628
2313,83.43674699390797
2314,83.43360678213357
2315,83.43096794402871
2316,83.42897639077748
2317,83.42758946849142
2318,83.4266347761775
2319,83.42593991284265
2320,83.42533247749384
2321,83.42464006913801
2322,83.42369028678213
2323,83.42231072943314
2324,83.42158963889042
2325,83.42223312696413
2326,83.42349559767729
2327,83.42463145505293
2328,83.4248951031141
2329,83.42354094588384
2330,83.4198233873852
2331,83.41299683164121
2332,83.4023156826749
2333,83.38581512476199
2334,83.3633497873798
2335,83.33690324235377
2336,83.30845906150924
2337,83.28000081667163
2338,83.25351207966638
2339,83.23097642231886
2340,83.21437741645451
2341,83.20384009313028
2342,83.19752892106071
2343,83.19448662855747
2344,83.19375594393227
2345,83.19437959549683
2346,83.19540031156279
2347,83.1958608204419
2348,83.19480385044582
2349,83.19282583433673
2350,83.19109407347771
2351,83.1895075990819
2352,83.1879654423625
2353,83.18636663453262
2354,83.18461020680542
2355,83.18259519039407
2356,83.18022061651169
2357,83.17736722074544
2358,83.17407323883681
2359,83.17047395223054
2360,83.16670464237129
2361,83.16290059070371
2362,83.15919707867259
2363,83.15572938772256
2364,83.1526327992983
2365,83.15004259484455
2366,83.14790633045864
2367,83.14606822894548
2368,83.14450857181119
2369,83.14320764056181
2370,83.14214571670347
2371,83.1413030817422
2372,83.14066001718412
2373,83.14019680453526
2374,83.14001584770251
2375,83.14017981359254
2376,83.14060937821115
2377,83.14122521756414
2378,83.14194800765733
2379,83.14269842449653
2380,83.14339714408753
2381,83.14396484243616
2382,83.1444601083342
2383,83.1449849169107
2384,83.14552502367737
2385,83.14606618414592
2386,83.14659415382806
2387,83.14709468823547
2388,83.14755354287986
2389,83.14795647327296
2390,83.14828923492645
2391,83.14855572271598
2392,83.14877104010829
2393,83.14893775550163
2394,83.14905843729436
2395,83.14913565388481
2396,83.14917197367127
2397,83.14916996505207
2398,83.14913219642554
2399,83.14946159899779
2400,83.15032841147783
2401,83.15138616351827
2402,83.1522883847717
2403,83.15268860489071
2404,83.15224035352794
2405,83.15059716033596
2406,83.14741255496742
2407,83.14210500225794
2408,83.13472810915485
2409,83.12588811847827
2410,83.11619127304827
2411,83.10624381568493
2412,83.09665198920838
2413,83.08802203643864
2414,83.08096020019586
2415,83.07607272330009
2416,83.07344380572519
2417,83.07250877428088
2418,83.0729005620409
2419,83.07425210207904
2420,83.07619632746912
2421,83.0783661712849
2422,83.08039456660018
2423,83.08191444648872
2424,83.08313427013395
2425,83.08449296473465
2426,83.08596916538771
2427,83.08754150719005
2428,83.08918862523858
2429,83.09088915463016
2430,83.09262173046172
2431,83.09436498783016
2432,83.09600298112443
2433,83.09749603620828
2434,83.09893719539077
2435,83.10041950098103
2436,83.1020359952881
2437,83.10387972062108
2438,83.10604371928905
2439,83.10862103360108
2440,83.11170470586629
2441,83.11547899006067
2442,83.11993681761214
2443,83.12488424700753
2444,83.13012733673378
2445,83.1354721452777
2446,83.14072473112618
2447,83.14569115276613
2448,83.1501774686844
2449,83.15426803631391
2450,83.15818371504317
2451,83.16193531629244
2452,83.16553365148198
2453,83.1689895320321
2454,83.17231376936304
2455,83.17551717489506
2456,83.17861056004844
2457,83.18154946610667
2458,83.18430530989328
2459,83.18691271613851
2460,83.18940630957273
2461,83.19182071492621
2462,83.19419055692924
2463,83.19655046031212
2464,83.19893504980516
2465,83.20137895013866
2466,83.20417568528636
2467,83.20741442275936
2468,83.21082325259384
2469,83.2141302648261
2470,83.21706354949234
2471,83.21935119662879
2472,83.22072129627176
2473,83.2209019384574
2474,83.21942179465435
2475,83.2163378287908
2476,83.21217056959244
2477,83.20744054578498
2478,83.20266828609405
2479,83.19837431924536
2480,83.1950791739646
2481,83.19330337897745
2482,83.19297011432224
2483,83.19354571306356
2484,83.19486543346645
2485,83.19676453379597
2486,83.19907827231721
2487,83.20164190729518
2488,83.20429069699497
2489,83.2068598996816
2490,83.20918477362017
2491,83.2113534622055
2492,83.2135793689978
2493,83.2158856425101
2494,83.21829543125546
2495,83.22083188374688
2496,83.22351814849745
2497,83.22637737402017
2498,83.22943270882811
2499,83.23281570467326
2500,83.236560694675
2501,83.24054499939749
2502,83.24464593940482
2503,83.24874083526112
2504,83.2527070075305
2505,83.25642177677715
2506,83.2597624635651
2507,83.2627435003534
2508,83.26548927109698
2509,83.26804202360387
2510,83.2704440056822
2511,83.2727374651399
2512,83.27496464978512
2513,83.27716780742587
2514,83.27938918587023
2515,83.28167103292624
2516,83.28395168739706
2517,83.28615960533975
2518,83.28832221044317
2519,83.29046692639622
2520,83.29262117688775
2521,83.2948123856066
2522,83.2970679762417
2523,83.29941537248193
2524,83.3019784757646
2525,83.3047842689068
2526,83.30771479766702
2527,83.31065210780369
2528,83.31347824507529
2529,83.3160752552403
2530,83.31832518405719
2531,83.3201100772844
2532,83.3215593871183
2533,83.32285342118922
2534,83.32395050840663
2535,83.32480897767995
2536,83.32538715791857
2537,83.32564337803196
2538,83.32553596692956
2539,83.32502325352081
2540,83.3240635667151
2541,83.3220977669621
2542,83.318916891625
2543,83.3150045349836
2544,83.31084429131768
2545,83.30691975490706
2546,83.30371452003149
2547,83.3017121809708
2548,83.30139633200477
2549,83.30290324916507
2550,83.3058307704845
2551,83.30985483324463
2552,83.31465137472689
2553,83.31989633221288
2554,83.32526564298406
2555,83.33043524432195
2556,83.33508107350809
2557,83.33938194633188
2558,83.34372387450273
2559,83.34809358918226
2560,83.35247782153206
2561,83.35686330271369
2562,83.36123676388878
2563,83.36558493621888
2564,83.36989455086564
2565,83.37415233899056
2566,83.37837040637613
2567,83.3825669387297
2568,83.38673778710003
2569,83.39087880253611
2570,83.39498583608673
2571,83.3990547388008
2572,83.40308136172717
2573,83.40706155591474
2574,83.41104825890659
2575,83.41506810960321
2576,83.41907751108958
2577,83.42303286645068
2578,83.42689057877146
2579,83.43060705113692
2580,83.43413868663198
2581,83.43744188834165
2582,83.44054225216958
2583,83.44349686691365
2584,83.44630937500006
2585,83.44898341885504
2586,83.45152264090481
2587,83.45393068357565
2588,83.45621118929375
2589,83.45836780048533
2590,83.46040415957665
2591,83.46255480900544
2592,83.46491189619299
2593,83.46726547104099
2594,83.46940558345102
2595,83.47112228332476
2596,83.4722056205638
2597,83.47244564506981
2598,83.47163240674443
2599,83.46924226331926
2600,83.46525074915394
2601,83.46019667909206
2602,83.45461886797727
2603,83.44905613065315
2604,83.44404728196338
2605,83.44013113675153
2606,83.43784650986122
2607,83.4372120917179
2608,83.43772293910592
2609,83.43913241640726
2610,83.4411938880039
2611,83.44366071827774
2612,83.44628627161082
2613,83.4488239123851
2614,83.45102700498254
2615,83.4526489137851
2616,83.45382379594781
2617,83.45486438783124
2618,83.45579192262576
2619,83.45662763352178
2620,83.4573927537096
2621,83.45810851637961
2622,83.45879615472218
2623,83.45947690192767
2624,83.46008958566307
2625,83.46058776712817
2626,83.46101477981254
2627,83.46141395720576
2628,83.46182863279736
2629,83.46230214007693
2630,83.462877812534
2631,83.46359898365817
2632,83.46435341685496
2633,83.46504323601216
2634,83.46573331534265
2635,83.46648852905936
2636,83.46737375137516
2637,83.46845385650296
2638,83.46979371865568
2639,83.47145821204617
2640,83.47351221088739
2641,83.47604738741173
2642,83.47904434329422
2643,83.4824013469118
2644,83.48601666664138
2645,83.48978857085982
2646,83.49361532794406
2647,83.49739520627095
2648,83.50102647421743
2649,83.50464736887139
2650,83.50841402195925
2651,83.5122515438155
2652,83.51608504477466
2653,83.51983963517125
2654,83.52344042533981
2655,83.52681252561491
2656,83.52988104633101
2657,83.53258510840344
2658,83.53496788680121
2659,83.53711057293951
2660,83.5390943582335
2661,83.54100043409835
2662,83.54290999194922
2663,83.54490422320129
2664,83.54706431926972
2665,83.54947147156969
2666,83.55235529810422
2667,83.55573217296592
2668,83.55936342170428
2669,83.56301036986883
2670,83.56643434300908
2671,83.56939666667454
2672,83.5716586664147
2673,83.57298166777909
2674,83.57299847304344
2675,83.57177902075495
2676,83.56974034087033
2677,83.56729946334634
2678,83.56487341813971
2679,83.56287923520716
2680,83.56173394450542
2681,83.5618545759912
2682,83.56311503469749
2683,83.56505413811765
2684,83.56758628489901
2685,83.57062587368897
2686,83.57408730313489
2687,83.57788497188409
2688,83.58193327858393
2689,83.58614662188181
2690,83.59043940042508
2691,83.59500471105571
2692,83.60002393852602
2693,83.6053939133489
2694,83.61101146603724
2695,83.61677342710392
2696,83.6225766270618
2697,83.6283178964238
2698,83.63389406570278
2699,83.63944842554817
2700,83.64514064289273
2701,83.65089211267427
2702,83.65662422983057
2703,83.66225838929948
2704,83.66771598601879
2705,83.67291841492637
2706,83.67778707096
2707,83.6823049861341
2708,83.68654136344165
2709,83.69054685428841
2710,83.6943721100801
2711,83.6980677822224
2712,83.70168452212103
2713,83.70527298118174
2714,83.70888381081019
2715,83.71256766241213
2716,83.71614680961738
2717,83.71949101057427
2718,83.7227221434662
2719,83.72596208647657
2720,83.7293327177888
2721,83.73295591558627
2722,83.73695355805245
2723,83.74144752337068
2724,83.74662922856005
2725,83.75246463502548
2726,83.75873743752918
2727,83.76523133083333
2728,83.77173000970015
2729,83.77801716889188
2730,83.78387650317069
2731,83.78909170729881
2732,83.79385664256927
2733,83.79847439780264
2734,83.8028925090526
2735,83.80705851237276
2736,83.81091994381669
2737,83.81442433943805
2738,83.81751923529042
2739,83.82015216742742
2740,83.8222706719027
2741,83.82337492402635
2742,83.8232910504548
2743,83.8224555142611
2744,83.82130477851832
2745,83.82027530629954
2746,83.8198035606778
2747,83.82032600472616
2748,83.82227910151768
2749,83.82580260100738
2750,83.830540716916
2751,83.83618660796496
2752,83.84243343287584
2753,83.84897435037014
2754,83.85550251916936
2755,83.86171109799504
2756,83.86729324556867
2757,83.87233620202983
2758,83.87716805387359
2759,83.88184322935477
2760,83.88641615672822
2761,83.8909412642487
2762,83.89547298017105
2763,83.9000657327501
2764,83.90477395024065
2765,83.90965206089756
2766,83.91473751151835
2767,83.91999151053474
2768,83.92535412865261
2769,83.93076543657791
2770,83.93616550501655
2771,83.94149440467446
2772,83.94669220625757
2773,83.95169898047179
2774,83.95653852616181
2775,83.96127811835062
2776,83.96592304201171
2777,83.97047858211855
2778,83.97495002364455
2779,83.9793426515632
2780,83.983661750848
2781,83.98791260647236
2782,83.99197844137733
2783,83.99580417494386
2784,83.99948763680528
2785,84.00312665659497
2786,84.00681906394627
2787,84.01066268849252
2788,84.01475535986708
2789,84.01919490770331
2790,84.02394433664494
2791,84.02889036554237
2792,84.03401639533891
2793,84.0393058269779
2794,84.04474206140263
2795,84.05030849955645
2796,84.05598854238266
2797,84.06176559082462
2798,84.06762304582558
2799,84.07397531775628
2800,84.08102145785892
2801,84.08842182838423
2802,84.09583679158288
2803,84.10292670970559
2804,84.10935194500298
2805,84.11477285972585
2806,84.11884981612481
2807,84.12107917763237
2808,84.12156856452846
2809,84.12089522433493
2810,84.11963640457364
2811,84.11836935276646
2812,84.11767131643528
2813,84.11811954310191
2814,84.12029128028824
2815,84.12410687786878
2816,84.12897621634916
2817,84.13471083919796
2818,84.14112228988374
2819,84.14802211187502
2820,84.15522184864041
2821,84.16253304364848
2822,84.16976724036773
2823,84.17673598226679
2824,84.18369207750749
2825,84.19094528374842
2826,84.19839256870326
2827,84.20593090008563
2828,84.21345724560918
2829,84.22086857298757
2830,84.22806184993442
2831,84.23493404416342
2832,84.241542280585
2833,84.2480091672906
2834,84.25432989676546
2835,84.26049966149476
2836,84.26651365396371
2837,84.27236706665751
2838,84.27805509206136
2839,84.28357292266047
2840,84.28878655280786
2841,84.29363789163196
2842,84.29823600378101
2843,84.30268995390338
2844,84.30710880664725
2845,84.31160162666093
2846,84.31627747859271
2847,84.32124542709084
2848,84.32661453680362
2849,84.33247741360617
2850,84.33876602438198
2851,84.34534847529181
2852,84.3520928724964
2853,84.35886732215651
2854,84.36553993043292
2855,84.37197880348636
2856,84.37805204747761
2857,84.38382099938057
2858,84.38943755965005
2859,84.39490567966804
2860,84.4002293108166
2861,84.40541240447772
2862,84.41045891203342
2863,84.41537278486577
2864,84.42015797435677
2865,84.42550573251388
2866,84.43176182071225
2867,84.43841195438543
2868,84.44494184896705
2869,84.45083721989059
2870,84.45558378258967
2871,84.45866725249785
2872,84.45957334504871
2873,84.45778777567581
2874,84.45185357368366
2875,84.44162570119646
2876,84.42855777287738
2877,84.41410340338962
2878,84.39971620739631
2879,84.38684979956062
2880,84.37695779454572
2881,84.37149380701476
2882,84.37064797984902
2883,84.3731174079375
2884,84.37811613395486
2885,84.3848582005758
2886,84.392557650475
2887,84.40042852632712
2888,84.40768487080688
2889,84.41354072658898
2890,84.41833524645469
2891,84.42296098322683
2892,84.42746207964232
2893,84.43188267843816
2894,84.43626692235121
2895,84.44065895411843
2896,84.44510291647678
2897,84.44964295216319
2898,84.45432320391458
2899,84.4589702331501
2900,84.46346531894123
2901,84.46793468050365
2902,84.47250453705294
2903,84.47730110780472
2904,84.4824506119746
2905,84.48807926877815
2906,84.49431329743103
2907,84.50141165705945
2908,84.50936512136931
2909,84.51789763144572
2910,84.52673312837379
2911,84.53559555323865
2912,84.54420884712539
2913,84.55229695111913
2914,84.55958380630499
2915,84.56611601787438
2916,84.57217941883432
2917,84.57785679199338
2918,84.58323092016008
2919,84.58838458614295
2920,84.5934005727505
2921,84.5983616627913
2922,84.6033506390739
2923,84.60845028440679
2924,84.6135869456704
2925,84.61864037180335
2926,84.62362344870148
2927,84.6285490622606
2928,84.63343009837656
2929,84.63827944294519
2930,84.64310998186232
2931,84.64793460102379
2932,84.65337542357763
2933,84.65968680144832
2934,84.6663299636966
2935,84.67276613938301
2936,84.67845655756821
2937,84.6828624473128
2938,84.68544503767741
2939,84.68566555772271
2940,84.68268948735367
2941,84.67663410984927
2942,84.6683883593311
2943,84.65884116992075
2944,84.64888147573977
2945,84.63939821090976
2946,84.6312803095523
2947,84.62541670578894
2948,84.62269633374127
2949,84.62313386698031
2950,84.6258530928426
2951,84.63040661609817
2952,84.63634704151703
2953,84.64322697386915
2954,84.65059901792456
2955,84.65801577845322
2956,84.66502986022518
2957,84.67213970081359
2958,84.67998500701653
2959,84.68833028744122
2960,84.69694005069493
2961,84.70557880538495
2962,84.71401106011848
2963,84.72200132350281
2964,84.72931410414519
2965,84.73606973520161
2966,84.74255216694583
2967,84.7487713336618
2968,84.75473716963346
2969,84.76045960914466
2970,84.76594858647938
2971,84.77121403592153
2972,84.77626589175505
2973,84.7811140882638
2974,84.78571577630521
2975,84.79003420147691
2976,84.79408844017323
2977,84.79789756878853
2978,84.80148066371711
2979,84.80485680135337
2980,84.80804505809162
2981,84.81106451032619
2982,84.81393990633106
2983,84.81666368451475
2984,84.81920645647341
2985,84.82153883380323
2986,84.82363142810038
2987,84.82545485096102
2988,84.82697971398136
2989,84.82817662875756
2990,84.82921487633726
2991,84.83021378571368
2992,84.83106904040127
2993,84.83167632391459
2994,84.83193131976806
2995,84.8317297114762
2996,84.8309671825535
2997,84.82953941651442
2998,84.82734209687348
2999,84.82501326755543
3000,84.82291562701415
3001,84.82053184055776
3002,84.81734457349437
3003,84.81283649113209
3004,84.80649025877906
3005,84.79778854174342
3006,84.78621400533325
3007,84.77070891488691
3008,84.75131265525597
3009,84.72915357101832
3010,84.70536000675193
3011,84.68106030703477
3012,84.6573828164448
3013,84.63545587955991
3014,84.61640784095812
3015,84.60043747282768
3016,84.58658211417784
3017,84.5742279598178
3018,84.5627612045569
3019,84.55156804320431
3020,84.54003467056937
3021,84.5275472814613
3022,84.51349207068938
3023,84.49725523306284
3024,84.4788778510076
3025,84.45898649327005
3026,84.43784558414022
3027,84.41571954790814
3028,84.39287280886383
3029,84.36956979129734
3030,84.3460749194987
3031,84.32265261775792
3032,84.29872909875647
3033,84.2738066209863
3034,84.24826367745337
3035,84.22247876116356
3036,84.19683036512276
3037,84.17169698233693
3038,84.14745710581191
3039,84.12448922855367
3040,84.1029509378362
3041,84.08255626488581
3042,84.06301836863683
3043,84.04405040802365
3044,84.02536554198056
3045,84.00667692944194
3046,83.98769772934209
3047,83.96814110061537
3048,83.94772020219612
3049,83.92643084732678
3050,83.90456136371952
3051,83.88226368201326
3052,83.85968973284696
3053,83.83699144685954
3054,83.81432075468993
3055,83.7918295869771
3056,83.76966987435996
3057,83.7474633543299
3058,83.7249032185366
3059,83.70224857885648
3060,83.67975854716597
3061,83.65769223534149
3062,83.63630875525946
3063,83.61586721879627
3064,83.59662673782836
3065,83.57785627476886
3066,83.55893142487183
3067,83.54027124927514
3068,83.52229480911657
3069,83.50542116553397
3070,83.4900693796652
3071,83.47665851264804
3072,83.46560762562038
3073,83.45733577972
3074,83.45349200699692
3075,83.45441333757286
3076,83.45855082969328
3077,83.4643555416036
3078,83.47027853154925
3079,83.4747708577757
3080,83.47628357852834
3081,83.47326775205265
3082,83.46546218650859
3083,83.45423012515955
3084,83.44045927890606
3085,83.4250373586487
3086,83.40885207528797
3087,83.39279113972441
3088,83.37774226285858
3089,83.36459315559097
3090,83.35301379587945
3091,83.3420137640599
3092,83.33149017459998
3093,83.32134014196737
3094,83.31146078062966
3095,83.30174920505453
3096,83.29210252970964
3097,83.28241786906261
3098,83.27259233758113
3099,83.26272464728576
3100,83.25296720603698
3101,83.24329767206225
3102,83.23369370358901
3103,83.2241329588447
3104,83.21459309605682
3105,83.2050517734528
3106,83.19548664926008
3107,83.18576163861341
3108,83.17583969730629
3109,83.16584704455433
3110,83.15590989957313
3111,83.1461544815783
3112,83.13670700978543
3113,83.12769370341016
3114,83.11924078166808
3115,83.11141835334827
3116,83.10413604914002
3117,83.09727937110925
3118,83.09073382132192
3119,83.08438490184392
3120,83.07811811474122
3121,83.0718189620797
3122,83.06537294592533
3123,83.05866556834403
3124,83.05174621912684
3125,83.0447548596309
3126,83.03771284927126
3127,83.030641547463
3128,83.02356231362121
3129,83.01649650716092
3130,83.00946548749724
3131,83.00249061404519
3132,82.99459450148437
3133,82.98533792809167
3134,82.97554949867815
3135,82.96605781805485
3136,82.95769149103283
3137,82.95127912242314
3138,82.94764931703682
3139,82.94763067968492
3140,82.95240501588401
3141,82.9617417250929
3142,82.97435080303605
3143,82.98894224543785
3144,83.00422604802277
3145,83.01891220651524
3146,83.0317107166397
3147,83.04133157412056
3148,83.0464847746823
3149,83.04694632903123
3150,83.04390425879323
3151,83.03818657607205
3152,83.03062129297145
3153,83.02203642159513
3154,83.0132599740469
3155,83.00511996243048
3156,82.9984443988496
3157,82.9927033563262
3158,82.98688114034229
3159,82.98107711169179
3160,82.97539063116854
3161,82.96992105956646
3162,82.96476775767943
3163,82.9600300863013
3164,82.95580740622601
3165,82.95224539089068
3166,82.94931609100892
3167,82.94685843328936
3168,82.94471134444063
3169,82.94271375117134
3170,82.9407045801901
3171,82.93852275820551
3172,82.93600721192622
3173,82.93299686806084
3174,82.92931917411956
3175,82.92506275637619
3176,82.92045830968475
3177,82.91573652889922
3178,82.91112810887361
3179,82.90686374446193
3180,82.90317413051822
3181,82.90028996189645
3182,82.898272298425
3183,82.89692759921698
3184,82.89610465805352
3185,82.89565226871566
3186,82.89541922498456
3187,82.89525432064131
3188,82.89500634946701
3189,82.89452410524274
3190,82.89404306215188
3191,82.89381907028357
3192,82.89373148727762
3193,82.89365967077379
3194,82.89348297841181
3195,82.89308076783153
3196,82.89233239667267
3197,82.89111722257506
3198,82.8893146031784
3199,82.88596247842001
3200,82.88076256120111
3201,82.87458986860749
3202,82.8683194177249
3203,82.86282622563914
3204,82.858985309436
3205,82.85767168620121
3206,82.85976037302058
3207,82.86640469598731
3208,82.87726558810725
3209,82.89097947683523
3210,82.90618278962597
3211,82.92151195393429
3212,82.93560339721492
3213,82.94709354692266
3214,82.9546188305123
3215,82.95798901820874
3216,82.9584212234847
3217,82.9566628886669
3218,82.95346145608185
3219,82.94956436805624
3220,82.94571906691664
3221,82.94267299498966
3222,82.94117359460195
3223,82.94094602390534
3224,82.94115934722285
3225,82.94172686613771
3226,82.94256188223322
3227,82.94357769709266
3228,82.94468761229926
3229,82.94580492943629
3230,82.94684295008707
3231,82.94771497583483
3232,82.94847530497192
3233,82.94923829946259
3234,82.95000735639768
3235,82.95078587286818
3236,82.95157724596501
3237,82.95238487277913
3238,82.95321215040146
3239,82.95406247592291
3240,82.9549725221933
3241,82.9559547708235
3242,82.95697633204618
3243,82.958004316094
3244,82.95900583319963
3245,82.95994799359568
3246,82.96079790751484
3247,82.96152268518979
3248,82.96211740088718
3249,82.96261169402615
3250,82.96302452256799
3251,82.96337484447399
3252,82.9636816177054
3253,82.96396380022355
3254,82.9642403499897
3255,82.96453022496513
3256,82.96485238311116
3257,82.96489320125337
3258,82.96449820756881
3259,82.96392508704596
3260,82.96343152467327
3261,82.9632752054392
3262,82.96371381433222
3263,82.9650050363408
3264,82.96740655645338
3265,82.97142320122548
3266,82.9770259106204
3267,82.98367153973841
3268,82.99081694367973
3269,82.99791897754463
3270,83.00443449643333
3271,83.00982035544611
3272,83.01353340968316
3273,83.01558715991433
3274,83.01650756055142
3275,83.01652014715758
3276,83.01585045529613
3277,83.01472402053025
3278,83.01336637842316
3279,83.01200306453806
3280,83.01085961443823
3281,83.01016156368684
3282,83.00975252796134
3283,83.00932900749375
3284,83.0088958646792
3285,83.0084579619128
3286,83.00802016158961
3287,83.00758732610478
3288,83.00716431785338
3289,83.00675599923055
3290,83.00632300825151
3291,83.00584384464176
3292,83.00535016336173
3293,83.0048736193719
3294,83.00444586763274
3295,83.00409856310469
3296,83.00386336074823
3297,83.0037719155238
3298,83.00390271909689
3299,83.00426347250688
3300,83.00477964477516
3301,83.0053767049231
3302,83.00598012197203
3303,83.00651536494335
3304,83.00690790285844
3305,83.00708320473865
3306,83.00696673960532
3307,83.00660273957354
3308,83.00608314472773
3309,83.00540498604332
3310,83.0045652944958
3311,83.00356110106061
3312,83.00238943671317
3313,83.00104733242894
3314,82.9995318191834
3315,82.99771253704183
3316,82.99553644510324
3317,82.99311655289355
3318,82.99056586993879
3319,82.98799740576492
3320,82.98552416989789
3321,82.98325917186366
3322,82.98131542118824
3323,82.97974418258167
3324,82.9784638047183
3325,82.97738792307044
3326,82.97643017311043
3327,82.97550419031062
3328,82.97452361014334
3329,82.97340206808094
3330,82.97205319959576
3331,82.97039064016013
3332,82.96814927632967
3333,82.96530093082758
3334,82.96211464337766
3335,82.95885945370362
3336,82.95580440152926
3337,82.95321852657833
3338,82.95137086857457
3339,82.95053046724176
3340,82.9509995310459
3341,82.9526513495926
3342,82.95511158431515
3343,82.95800589664681
3344,82.96095994802081
3345,82.96359939987042
3346,82.96554991362886
3347,82.96643715072943
3348,82.96628251528188
3349,82.96545205800078
3350,82.96408841022662
3351,82.9623342032999
3352,82.96033206856107
3353,82.95822463735063
3354,82.95615454100906
3355,82.95426441087682
3356,82.9526968782944
3357,82.9513182118357
3358,82.9499230081115
3359,82.94854639051755
3360,82.94722348244966
3361,82.94598940730366
3362,82.9448792884753
3363,82.94392824936043
3364,82.94317141335478
3365,82.94263953355248
3366,82.94231233899788
3367,82.94214841701208
3368,82.94210635491628
3369,82.9421447400316
3370,82.94222215967916
3371,82.94229720118014
3372,82.94232845185569
3373,82.94229364644949
3374,82.94221891311385
3375,82.94213542928279
3376,82.9420743723904
3377,82.94206691987071
3378,82.94214424915774
3379,82.94233753768556
3380,82.94267796288821
3381,82.94319670219974
3382,82.94391355058514
3383,82.94480847092854
3384,82.94585289254265
3385,82.94701824474024
3386,82.948275956834
3387,82.94959745813671
3388,82.95095417796107
3389,82.9523175456198
3390,82.95374990514048
3391,82.95530518557037
3392,82.95694219375187
3393,82.95861973652731
3394,82.9602966207391
3395,82.96193165322958
3396,82.96348364084112
3397,82.9649113904161
3398,82.96615033568112
3399,82.96720749785989
3400,82.96814906504049
3401,82.96904122531103
3402,82.96995016675953
3403,82.97094207747413
3404,82.97208314554285
3405,82.97343955905379
3406,82.97507750609503
3407,82.97706394816043
3408,82.97936357017966
3409,82.98188914539446
3410,82.9845534470466
3411,82.98726924837781
3412,82.98994932262985
3413,82.9925064430445
3414,82.9948533828635
3415,82.99692861028784
3416,82.99878882764962
3417,83.0005241593872
3418,83.00222472993903
3419,83.00398066374346
3420,83.00588208523892
3421,83.0080191188638
3422,83.01048188905649
3423,83.01330228906639
3424,83.01640877563938
3425,83.01973631845857
3426,83.02321988720708
3427,83.02679445156802
3428,83.03039498122453
3429,83.03395644585972
3430,83.0374138151567
3431,83.04070205879859
3432,83.0439572457286
3433,83.04730442302741
3434,83.05066202758437
3435,83.05394849628875
3436,83.05708226602992
3437,83.05998177369722
3438,83.06256545617994
3439,83.0647517503674
3440,83.06638112927172
3441,83.0674629033367
3442,83.06816876559954
3443,83.06867040909728
3444,83.06913952686703
3445,83.0697478119459
3446,83.07066695737102
3447,83.07206865617944
3448,83.07386053330951
3449,83.07583356043745
3450,83.0779844507072
3451,83.08030991726272
3452,83.08280667324797
3453,83.08547143180688
3454,83.0883009060834
3455,83.09129180922147
3456,83.09444085436508
3457,83.09780195296817
3458,83.10140753601678
3459,83.10522209595302
3460,83.10921012521892
3461,83.11333611625658
3462,83.11756456150802
3463,83.1218599534153
3464,83.12618678442053
3465,83.13068106621519
3466,83.1354349062461
3467,83.1403469405882
3468,83.14531580531643
3469,83.15024013650574
3470,83.15501857023108
3471,83.1595497425674
3472,83.16373228958965
3473,83.16752954784319
3474,83.17102109379422
3475,83.17427992339888
3476,83.17737903261336
3477,83.18039141739376
3478,83.18339007369624
3479,83.18644799747698
3480,83.18963818469209
3481,83.19303363129774
3482,83.19671132340967
3483,83.20062989981908
3484,83.20468483549529
3485,83.2087716054076
3486,83.21278568452541
3487,83.21662254781799
3488,83.22017767025466
3489,83.22334652680475
3490,83.22592224981375
3491,83.22791572936373
3492,83.2295490770288
3493,83.23104440438317
3494,83.23262382300096
3495,83.23450944445634
3496,83.23692338032347
3497,83.24008774217651
3498,83.24408825937698
3499,83.2487536321063
3500,83.25392042816847
3501,83.25942521536754
3502,83.26510456150747
3503,83.2707950343923
3504,83.27633320182602
3505,83.28155563161265
3506,83.2862988915562
3507,83.29060508756639
3508,83.29465804023421
3509,83.29850688938558
3510,83.30220077484645
3511,83.30578883644276
3512,83.3093202140004
3513,83.3128440473453
3514,83.31640947630342
3515,83.31995382207735
3516,83.32340342249111
3517,83.32679094230282
3518,83.33014904627055
3519,83.33351039915237
3520,83.33690766570642
3521,83.34037351069075
3522,83.34394059886345
3523,83.34762832993842
3524,83.35141516102416
3525,83.35527234297084
3526,83.35917112662854
3527,83.36308276284734
3528,83.36697850247741
3529,83.3708295963688
3530,83.37460729537166
3531,83.37828285033606
3532,83.3821310628759
3533,83.38629822877772
3534,83.39056284015078
3535,83.39470338910422
3536,83.39849836774732
3537,83.40172626818922
3538,83.40416558253915
3539,83.40559480290634
3540,83.40564655503482
3541,83.40437435271096
3542,83.40218802010726
3543,83.3994973813963
3544,83.39671226075068
3545,83.3942424823429
3546,83.3924978703456
3547,83.39188824893125
3548,83.39234582439023
3549,83.39344847353468
3550,83.39507452631979
3551,83.39710231270082
3552,83.39941016263298
3553,83.4018764060715
3554,83.40437937297162
3555,83.40679739328858
3556,83.40900879697762
3557,83.41095792592301
3558,83.41274970205525
3559,83.41450332539881
3560,83.41633799597818
3561,83.41837291381782
3562,83.4207272789422
3563,83.42352029137582
3564,83.42687115114316
3565,83.43104549630367
3566,83.43604364790717
3567,83.44158683046359
3568,83.44739626848293
3569,83.45319318647515
3570,83.4586988089502
3571,83.46363436041804
3572,83.46772106538869
3573,83.47091161106478
3574,83.47344855804359
3575,83.47548794092684
3576,83.47718579431634
3577,83.47869815281379
3578,83.48018105102099
3579,83.48179052353974
3580,83.48368260497175
3581,83.48601332991878
3582,83.48871811311389
3583,83.49161033084721
3584,83.49466296005608
3585,83.49784897767783
3586,83.50114136064985
3587,83.50451308590951
3588,83.50793713039415
3589,83.51138647104115
3590,83.5150051704829
3591,83.5188807060977
3592,83.52290117694179
3593,83.52695468207136
3594,83.53092932054261
3595,83.53471319141177
3596,83.53819439373505
3597,83.54126102656863
3598,83.5440222400431
3599,83.54664152030877
3600,83.54908847045154
3601,83.55133269355726
3602,83.55334379271173
3603,83.5550913710009
3604,83.55654503151055
3605,83.5576743773266
3606,83.55844901153492
3607,83.55854879856585
3608,83.55785788478369
3609,83.55665229617513
3610,83.55520805872692
3611,83.55380119842572
3612,83.55270774125825
3613,83.55220371321121
3614,83.55256514027133
3615,83.55372685939265
3616,83.55539806166342
3617,83.55751630427156
3618,83.56001914440493
3619,83.56284413925152
3620,83.5659288459992
3621,83.56921082183588
3622,83.57262762394949
3623,83.57629328654679
3624,83.5803154299303
3625,83.58462199043153
3626,83.58914090438203
3627,83.59380010811326
3628,83.59852753795678
3629,83.6032511302441
3630,83.60789882130672
3631,83.61239854747618
3632,83.61678175884903
3633,83.62113729225423
3634,83.62547916412198
3635,83.62982139088236
3636,83.6341779889655
3637,83.63856297480159
3638,83.64299036482069
3639,83.647474175453
3640,83.65207447319332
3641,83.6568036518441
3642,83.66160421879681
3643,83.666418681443
3644,83.67118954717415
3645,83.67585932338179
3646,83.68037051745739
3647,83.6846656367925
3648,83.68869937403586
3649,83.69250706661649
3650,83.6961521890962
3651,83.69969821603684
3652,83.70320862200023
3653,83.70674688154823
3654,83.71037646924268
3655,83.71416085964539
3656,83.71809385898312
3657,83.72211282391613
3658,83.7261965546565
3659,83.73032385141632
3660,83.73447351440767
3661,83.73862434384267
3662,83.7427551399334
3663,83.74684470289195
3664,83.75087183293043
3665,83.75516708763696
3666,83.75989362837436
3667,83.76477916101672
3668,83.76955139143816
3669,83.77393802551273
3670,83.77766676911459
3671,83.7804653281178
3672,83.78206140839647
3673,83.78200689761793
3674,83.78036907537857
3675,83.77764873544606
3676,83.77434667158808
3677,83.77096367757225
3678,83.76800054716631
3679,83.7659580741379
3680,83.76533705225468
3681,83.76600799872962
3682,83.7674308113581
3683,83.76949035478145
3684,83.77207149364104
3685,83.77505909257819
3686,83.77833801623423
3687,83.7817931292505
3688,83.7853092962684
3689,83.78877138192917
3690,83.79237922787576
3691,83.79634539099841
3692,83.80057380880969
3693,83.80496841882209
3694,83.80943315854807
3695,83.81387196550017
3696,83.81818877719087
3697,83.82228753113267
3698,83.82631465529919
3699,83.83042439261955
3700,83.83453240303962
3701,83.83855434650523
3702,83.84240588296227
3703,83.84600267235655
3704,83.8492603746339
3705,83.85209464974022
3706,83.85455770461039
3707,83.8567608116619
3708,83.85870822906445
3709,83.8604042149878
3710,83.8618530276016
3711,83.86305892507559
3712,83.8640261655795
3713,83.86475900728304
3714,83.86526170835589
3715,83.86559860300457
3716,83.86578427862895
3717,83.86574837318881
3718,83.86542052464388
3719,83.86473037095396
3720,83.8636075500788
3721,83.86198169997817
3722,83.85978245861186
3723,83.85706037348564
3724,83.85390411928309
3725,83.8503005247309
3726,83.84623641855556
3727,83.84169862948369
3728,83.83667398624186
3729,83.83114931755664
3730,83.8251114521546
3731,83.81895391326688
3732,83.81289918185952
3733,83.80667752326147
3734,83.8000192028017
3735,83.79265448580918
3736,83.78431363761283
3737,83.77472692354165
3738,83.76362460892457
3739,83.75073695909057
3740,83.73583687645417
3741,83.71906511744814
3742,83.70070372842872
3743,83.68103475575218
3744,83.6603402457748
3745,83.63890224485283
3746,83.61700279934254
3747,83.59492395560021
3748,83.57196882063431
3749,83.54757011044256
3750,83.52220428486497
3751,83.49634780374156
3752,83.47047712691233
3753,83.44506871421733
3754,83.42059902549659
3755,83.39754452059009
3756,83.3765984305614
3757,83.35765336375341
3758,83.33998484592502
3759,83.3228684028352
3760,83.30557956024292
3761,83.28739384390711
3762,83.26758677958675
3763,83.24543389304078
3764,83.22021071002816
3765,83.19108505481408
3766,83.15840134838434
3767,83.12320001157879
3768,83.08652146523718
3769,83.04940613019936
3770,83.01289442730517
3771,82.97802677739439
3772,82.94584360130686
3773,82.9159249549416
3774,82.88709998526504
3775,82.85928274971806
3776,82.83238730574163
3777,82.80632771077661
3778,82.78101802226395
3779,82.75637229764455
3780,82.73230459435933
3781,82.70904005378186
3782,82.68674999230772
3783,82.66526772991085
3784,82.64442658656526
3785,82.62405988224485
3786,82.6040009369236
3787,82.58408307057546
3788,82.5641396031744
3789,82.54400385469434
3790,82.52386692862521
3791,82.50399038216754
3792,82.48431321586135
3793,82.46477443024654
3794,82.4453130258631
3795,82.42586800325097
3796,82.40637836295012
3797,82.38678310550051
3798,82.3655249692932
3799,82.34199465121964
3800,82.31755308957032
3801,82.29356122263586
3802,82.27137998870674
3803,82.25237032607353
3804,82.23789317302675
3805,82.22930946785695
3806,82.2283647959416
3807,82.23458372271998
3808,82.24599565657532
3809,82.26063000589089
3810,82.27651617904989
3811,82.29168358443563
3812,82.30416163043135
3813,82.31197972542026
3814,82.31316727778565
3815,82.30747515282295
3816,82.29676495927906
3817,82.28223222071442
3818,82.26507246068947
3819,82.24648120276464
3820,82.22765397050038
3821,82.20978628745713
3822,82.1940736771953
3823,82.17978430534733
3824,82.16546593474567
3825,82.15123348475099
3826,82.13720187472389
3827,82.12348602402498
3828,82.1102008520149
3829,82.09746127805425
3830,82.08538222150365
3831,82.07408181960673
3832,82.06350077087302
3833,82.05348783656197
3834,82.04389177793304
3835,82.03456135624559
3836,82.02534533275916
3837,82.0160924687331
3838,82.0066515254269
3839,81.99687126410001
3840,81.98675860458306
3841,81.97647363736961
3842,81.9660948797133
3843,81.95570084886785
3844,81.94537006208695
3845,81.9351810366243
3846,81.92521228973362
3847,81.91554233866854
3848,81.90609605686365
3849,81.89676646888262
3850,81.88758431867278
3851,81.87858035018156
3852,81.86978530735635
3853,81.86122993414448
3854,81.85294497449337
3855,81.8449611723504
3856,81.83744252237821
3857,81.83043589780095
3858,81.82379636040818
3859,81.81737897198951
3860,81.81103879433446
3861,81.80463088923266
3862,81.79801031847363
3863,81.79103214384696
3864,81.78355142714224
3865,81.77209893721509
3866,81.75533210554586
3867,81.73629598786115
3868,81.71803563988767
3869,81.703596117352
3870,81.6960224759808
3871,81.6983597715007
3872,81.71365305963835
3873,81.74713830025357
3874,81.7981594230704
3875,81.86092343861192
3876,81.9296373574011
3877,81.99850818996103
3878,82.0617429468147
3879,82.11354863848511
3880,82.14813227549533
3881,82.1657661628118
3882,82.17210688972156
3883,82.16943789322865
3884,82.16004261033702
3885,82.14620447805056
3886,82.13020693337332
3887,82.11433341330923
3888,82.10086735486223
3889,82.09209219503634
3890,82.08659189320694
3891,82.08137183217175
3892,82.07634758406813
3893,82.07143472103343
3894,82.06654881520497
3895,82.06160543872014
3896,82.05652016371633
3897,82.05120856233084
3898,82.04553250998042
3899,82.03951321790323
3900,82.03330526196905
3901,82.02706321804749
3902,82.02094166200824
3903,82.01509516972104
3904,82.0096783170555
3905,82.00484567988133
3906,82.00064258596615
3907,81.9969409327287
3908,81.99363515051542
3909,81.99061966967272
3910,81.98778892054702
3911,81.98503733348475
3912,81.98225933883229
3913,81.97934936693606
3914,81.97620184814251
3915,81.9728689991769
3916,81.96948285228751
3917,81.96605756110526
3918,81.96260727926104
3919,81.95914616038571
3920,81.95568835811024
3921,81.95224802606545
3922,81.9488393178823
3923,81.94534495343234
3924,81.94170119015487
3925,81.93800248803248
3926,81.93434330704773
3927,81.9308181071832
3928,81.92752134842144
3929,81.92454749074503
3930,81.92199099413652
3931,81.91736599163126
3932,81.90933574121388
3933,81.89971839029096
3934,81.89033208626905
3935,81.88299497655468
3936,81.87952520855445
3937,81.88174092967489
3938,81.89146028732257
3939,81.91050142890404
3940,81.94361805039507
3941,81.99114577739932
3942,82.04827565176537
3943,82.11019871534167
3944,82.17210600997673
3945,82.22918857751904
3946,82.27663745981714
3947,82.3096436987195
3948,82.32771516514406
3949,82.33522090677144
3950,82.33464373059398
3951,82.32846644360407
3952,82.3191718527941
3953,82.3092427651565
3954,82.3011619876836
3955,82.29741232736781
3956,82.2968676401056
3957,82.2966835833938
3958,82.29676566662522
3959,82.29701939919279
3960,82.2973502904893
3961,82.2976638499077
3962,82.2978655868408
3963,82.2978610106815
3964,82.29755563082266
3965,82.29689411550572
3966,82.29594774761952
3967,82.29481195852809
3968,82.29358217959535
3969,82.29235384218532
3970,82.29122237766198
3971,82.2902832173893
3972,82.28963179273127
3973,82.28935949311733
3974,82.28941459843254
3975,82.28967787572417
3976,82.2900300920396
3977,82.29035201442615
3978,82.29052440993117
3979,82.29042804560197
3980,82.28994368848593
3981,82.28907902853345
3982,82.28795246512632
3983,82.28661082945894
3984,82.2851009527257
3985,82.28346966612101
3986,82.28176380083923
3987,82.28003018807476
3988,82.27831565902203
3989,82.2766670448754
3990,82.27503784890546
3991,82.27335809170967
3992,82.27163938047272
3993,82.26989332237933
3994,82.26813152461419
3995,82.26636559436203
3996,82.26460713880753
3997,82.26286776513541
3998,82.25957725266714
3999,82.25405159522172
4000,82.24763172173022
4001,82.24165856112353
4002,82.23747304233272
4003,82.23641609428877
4004,82.23982864592269
4005,82.24905162616545
4006,82.26611993719436
4007,82.29072252449306
4008,82.32068138195207
4009,82.35381850346192
4010,82.38795588291315
4011,82.42091551419624
4012,82.45051939120175
4013,82.4745895078202
4014,82.4909478579421
4015,82.49920982914774
4016,82.50137245986197
4017,82.49883022024227
4018,82.49297758044611
4019,82.48520901063094
4020,82.47691898095425
4021,82.46950196157344
4022,82.46435242264606
4023,82.46077252083658
4024,82.45713511361322
4025,82.45344072233887
4026,82.44968986837642
4027,82.44588307308881
4028,82.44202085783893
4029,82.43810374398969
4030,82.43413225290396
4031,82.43006559386845
4032,82.42588442822641
4033,82.42162145542574
4034,82.41730937491427
4035,82.41298088613986
4036,82.4086686885504
4037,82.40440548159376
4038,82.40022396471777
4039,82.3961568373703
4040,82.39224814033064
4041,82.38848424131947
4042,82.38481133019687
4043,82.38117559682281
4044,82.37752323105741
4045,82.37380042276065
4046,82.36995336179255
4047,82.36592823801321
4048,82.36177546721564
4049,82.3575679039206
4050,82.3532853960798
4051,82.34890779164488
4052,82.3444149385675
4053,82.33978668479934
4054,82.33500287829204
4055,82.33004336699729
4056,82.32481164115306
4057,82.31928553185982
4058,82.3135563983628
4059,82.30771559990731
4060,82.30185449573864
4061,82.29606444510205
4062,82.29043680724281
4063,82.28506294140625
4064,82.27949483380706
4065,82.27342191194967
4066,82.26714169701376
4067,82.26095171017901
4068,82.25514947262522
4069,82.25003250553202
4070,82.24589833007919
4071,82.2430444674464
4072,82.24176843881338
4073,82.2428663357976
4074,82.24640275136731
4075,82.25157795872848
4076,82.25759223108697
4077,82.26364584164878
4078,82.26893906361981
4079,82.272672170206
4080,82.27404543461324
4081,82.27297110963508
4082,82.27017323389168
4083,82.2660697593289
4084,82.26107863789261
4085,82.25561782152865
4086,82.25010526218294
4087,82.24495891180132
4088,82.24059672232966
4089,82.23679427795494
4090,82.23305381553328
4091,82.22938326601411
4092,82.22579056034697
4093,82.22228362948132
4094,82.2188704043667
4095,82.21555881595256
4096,82.21235679518843
4097,82.20927227302377
4098,82.20625117438001
4099,82.20326564549185
4100,82.20036294927881
4101,82.1975903486603
4102,82.19499510655581
4103,82.1926244858848
4104,82.19052574956675
4105,82.1887461605211
4106,82.18743280254114
4107,82.18660369923398
4108,82.18611252323991
4109,82.18581294719927
4110,82.18555864375232
4111,82.18520328553937
4112,82.18460054520075
4113,82.18360409537671
4114,82.1821920250148
4115,82.18049167396164
4116,82.17858059120611
4117,82.17653632573722
4118,82.17443642654388
4119,82.17235844261502
4120,82.17037992293959
4121,82.16857841650652
4122,82.16703147230476
4123,82.16571720788507
4124,82.16454855555175
4125,82.16350528642405
4126,82.1625671716212
4127,82.16171398226244
4128,82.160925489467
4129,82.1601814643541
4130,82.15946167804299
4131,82.15827031623907
4132,82.15641415270258
4133,82.15432684063488
4134,82.15244203323738
4135,82.15119338371146
4136,82.15101454525852
4137,82.15233917107999
4138,82.1556009143772
4139,82.16139666783417
4140,82.16959363007653
4141,82.17953091321834
4142,82.1905476293736
4143,82.20198289065628
4144,82.21317580918044
4145,82.22346549706005
4146,82.23219106640914
4147,82.23869162934173
4148,82.24296675395205
4149,82.24567635563804
4150,82.24715006746922
4151,82.24771752251517
4152,82.2477083538454
4153,82.24745219452944
4154,82.24727867763684
4155,82.24751743623713
4156,82.24782400037007
4157,82.247736803796
4158,82.24740983516531
4159,82.24699708312843
4160,82.24665253633576
4161,82.24653018343771
4162,82.24678401308468
4163,82.24756801392708
4164,82.24887238410514
4165,82.25054346855264
4166,82.2525194761103
4167,82.25473861561886
4168,82.25713909591902
4169,82.25965912585156
4170,82.26223691425717
4171,82.2648106699766
4172,82.26731860185058
4173,82.2699023419576
4174,82.27268938615798
4175,82.27559673896499
4176,82.27854140489201
4177,82.28144038845235
4178,82.2842106941594
4179,82.28676932652648
4180,82.28903329006693
4181,82.29099179805662
4182,82.29271927093441
4183,82.2942605239581
4184,82.29566037238554
4185,82.29696363147455
4186,82.29821511648295
4187,82.29945964266855
4188,82.30074202528918
4189,82.3018695470013
4190,82.30270579169297
4191,82.30338002646936
4192,82.30402151843568
4193,82.3047595346971
4194,82.30572334235883
4195,82.30704220852606
4196,82.30884540030395
4197,82.31126218479773
4198,82.31441070636514
4199,82.31821885628163
4200,82.32253052202898
4201,82.32718959108892
4202,82.33203995094323
4203,82.33692548907361
4204,82.34169009296185
4205,82.34617765008971
4206,82.35052930894534
4207,82.35495424032675
4208,82.3593983651805
4209,82.36380760445309
4210,82.36812787909109
4211,82.37230511004103
4212,82.37628521824946
4213,82.38001412466288
4214,82.38341116699812
4215,82.386490060747
4216,82.3893382935186
4217,82.39204335292204
4218,82.39469272656632
4219,82.3973739020606
4220,82.40017436701393
4221,82.4031816090354
4222,82.40648311573406
4223,82.41005987747535
4224,82.41381635392514
4225,82.41772523664318
4226,82.42175921718925
4227,82.4258909871231
4228,82.43009323800452
4229,82.43433866139326
4230,82.4385999488491
4231,82.443013007791
4232,82.44766209229395
4233,82.4524424139018
4234,82.45724918415844
4235,82.46197761460772
4236,82.46652291679347
4237,82.47078030225954
4238,82.47464498254985
4239,82.47797675607602
4240,82.48080763528834
4241,82.48329115278874
4242,82.485580841179
4243,82.48783023306098
4244,82.49019286103649
4245,82.49282225770742
4246,82.49587195567557
4247,82.4994954875428
4248,82.5037722393542
4249,82.50858491747576
4250,82.51379203499077
4251,82.51925210498257
4252,82.5248236405344
4253,82.53036515472951
4254,82.53573516065123
4255,82.54079217138283
4256,82.5456143511147
4257,82.55036994823006
4258,82.55505260210148
4259,82.55965595210151
4260,82.56417363760264
4261,82.56859929797744
4262,82.57292657259848
4263,82.57714910083826
4264,82.5813463957796
4265,82.58556665968734
4266,82.5897565657069
4267,82.59386278698386
4268,82.59783199666361
4269,82.60161086789175
4270,82.60514607381369
4271,82.60838428757499
4272,82.6112721823211
4273,82.61352644485281
4274,82.61507281912371
4275,82.61617156400867
4276,82.61708293838245
4277,82.61806720111989
4278,82.61938461109577
4279,82.62129542718493
4280,82.62405990826218
4281,82.627734710926
4282,82.63209625098072
4283,82.63698442610982
4284,82.64223913399681
4285,82.64770027232521
4286,82.65320773877855
4287,82.65860143104031
4288,82.66372124679401
4289,82.66854585425672
4290,82.67321154353023
4291,82.67779464512516
4292,82.68237148955221
4293,82.68701840732196
4294,82.69181172894507
4295,82.69682778493218
4296,82.70214290579395
4297,82.70783342204098
4298,82.71399683071617
4299,82.72060290576837
4300,82.72753639306703
4301,82.73468203848171
4302,82.74192458788193
4303,82.74914878713716
4304,82.75623938211697
4305,82.76308111869083
4306,82.76979029828844
4307,82.77652653021818
4308,82.78323952216769
4309,82.78987898182464
4310,82.79639461687667
4311,82.80273613501141
4312,82.80885324391652
4313,82.81469565127964
4314,82.82018039357116
4315,82.8253173925632
4316,82.830195683896
4317,82.83490430320978
4318,82.83953228614476
4319,82.84416866834118
4320,82.84890248543928
4321,82.85382277307927
4322,82.85901856690138
4323,82.86463437896936
4324,82.87064234741005
4325,82.8768729469585
4326,82.88315665234963
4327,82.88932393831844
4328,82.89520527959994
4329,82.90063115092907
4330,82.90543202704086
4331,82.90948431382763
4332,82.91289649501948
4333,82.91584716210795
4334,82.91851490658459
4335,82.92107831994099
4336,82.92371599366868
4337,82.92660651925922
4338,82.92992848820418
4339,82.93363073116777
4340,82.93752023820184
4341,82.94156283987934
4342,82.94572436677329
4343,82.94997064945663
4344,82.95426751850236
4345,82.95858080448347
4346,82.96287633797293
4347,82.9671199495437
4348,82.97129679175815
4349,82.9754368842904
4350,82.97957335838113
4351,82.98373934527105
4352,82.98796797620086
4353,82.99229238241122
4354,82.99674569514283
4355,83.00136104563641
4356,83.00620594855896
4357,83.0112777852052
4358,83.01650448675741
4359,83.02181398439782
4360,83.02713420930873
4361,83.03239309267232
4362,83.0375185656709
4363,83.0424385594867
4364,83.04713139784427
4365,83.05165467692463
4366,83.05605523659453
4367,83.06037991672088
4368,83.06467555717046
4369,83.06898899781012
4370,83.07336707850673
4371,83.0778566391271
4372,83.08250451953808
4373,83.0873054944344
4374,83.09221056263634
4375,83.09720090019891
4376,83.10225768317726
4377,83.1073620876264
4378,83.11249528960138
4379,83.11763846515731
4380,83.12277279034923
4381,83.12789942406627
4382,83.13303679054182
4383,83.13819196384729
4384,83.14337201805415
4385,83.14858402723378
4386,83.15383506545766
4387,83.1591322067972
4388,83.16448252532383
4389,83.17066754429389
4390,83.17807039112927
4391,83.18610054614976
4392,83.1941674896752
4393,83.20168070202536
4394,83.20804966352006
4395,83.21268385447912
4396,83.21499275522233
4397,83.2143858460695
4398,83.20932600168477
4399,83.19971113764146
4400,83.18710329562315
4401,83.1730645173134
4402,83.15915684439587
4403,83.14694231855408
4404,83.13798298147165
4405,83.13384087483219
4406,83.13484462373691
4407,83.13964740876867
4408,83.14729810483342
4409,83.15684558683712
4410,83.16733872968572
4411,83.17782640828521
4412,83.18735749754151
4413,83.19498087236063
4414,83.20096729815832
4415,83.20633298081054
4416,83.21124495591353
4417,83.2158702590635
4418,83.22037592585667
4419,83.2249289918893
4420,83.22969649275758
4421,83.23484546405774
4422,83.24054294138602
4423,83.24683938449617
4424,83.25358908771166
4425,83.26066483848338
4426,83.26793942426217
4427,83.27528563249888
4428,83.28257625064437
4429,83.28968406614949
4430,83.29648186646511
4431,83.30316558891813
4432,83.3099403614574
4433,83.31669275746657
4434,83.32330935032938
4435,83.32967671342954
4436,83.33568142015072
4437,83.34121004387667
4438,83.34614915799105
4439,83.35054281439601
4440,83.35452813747564
4441,83.35813130933656
4442,83.36137851208545
4443,83.36429592782893
4444,83.36690973867363
4445,83.36924612672622
4446,83.37133127409334
4447,83.37319136288161
4448,83.37479335376925
4449,83.37608575021636
4450,83.3770670485026
4451,83.37773574490755
4452,83.3780903357109
4453,83.3781293171922
4454,83.37785118563109
4455,83.37725443730719
4456,83.37656306070112
4457,83.37587448299065
4458,83.37499735850113
4459,83.37374034155788
4460,83.37191208648629
4461,83.36932124761167
4462,83.3657764792594
4463,83.36108643575479
4464,83.35666780849444
4465,83.35342729798106
4466,83.35040857219911
4467,83.34665529913313
4468,83.34121114676753
4469,83.33311978308689
4470,83.32142487607565
4471,83.3051700937183
4472,83.28339910399936
4473,83.25390965181064
4474,83.21663108719356
4475,83.17380448585702
4476,83.12767092350984
4477,83.08047147586089
4478,83.03444721861902
4479,82.9918392274931
4480,82.95488857819201
4481,82.92363096486669
4482,82.89594732719249
4483,82.87084660916472
4484,82.84733775477879
4485,82.82442970803007
4486,82.8011314129139
4487,82.77645181342568
4488,82.74939985356073
4489,82.72017367500496
4490,82.68980205848527
4491,82.65853990655867
4492,82.62664212178206
4493,82.59436360671238
4494,82.56195926390663
4495,82.52968399592173
4496,82.49779270531465
4497,82.46616518301984
4498,82.43450879883339
4499,82.40281982360462
4500,82.37109452818287
4501,82.33932918341745
4502,82.30752006015773
4503,82.27566342925302
4504,82.24375556155267
4505,82.21179272790602
4506,82.1797057698002
4507,82.14746725790019
4508,82.11513605682217
4509,82.08277103118225
4510,82.05043104559658
4511,82.01817496468131
4512,81.98606165305257
4513,81.95414997532652
4514,81.9219290159777
4515,81.88912374967033
4516,81.856146876305
4517,81.82341109578232
4518,81.79132910800288
4519,81.76031361286724
4520,81.73077731027601
4521,81.7031329001298
4522,81.67764325918435
4523,81.65402807148423
4524,81.63188524786342
4525,81.61081269915584
4526,81.59040833619535
4527,81.57027006981588
4528,81.54999581085137
4529,81.52918347013572
4530,81.50743095850287
4531,81.48296867862342
4532,81.45545461103312
4533,81.42662803336358
4534,81.39822822324639
4535,81.37199445831315
4536,81.34966601619541
4537,81.3329821745248
4538,81.3236822109329
4539,81.32450296237216
4540,81.33496090407789
4541,81.35196477110581
4542,81.3724232985117
4543,81.39324522135135
4544,81.41133927468051
4545,81.42361419355497
4546,81.42697871303045
4547,81.42175656654365
4548,81.41104767732168
4549,81.39592506510613
4550,81.37746174963854
4551,81.3567307506604
4552,81.3348050879133
4553,81.31275778113877
4554,81.29166185007831
4555,81.27259031447353
4556,81.25462781746972
4557,81.23625360292282
4558,81.21763259164014
4559,81.19892970442903
4560,81.18030986209688
4561,81.16193798545099
4562,81.14397899529872
4563,81.12659781244747
4564,81.10965092672653
4565,81.09291976634147
4566,81.07645665966402
4567,81.06031393506585
4568,81.0445439209187
4569,81.02919894559426
4570,81.01433133746421
4571,80.99999342490031
4572,80.98636346016376
4573,80.97347031055524
4574,80.9611422270055
4575,80.94920746044535
4576,80.93749426180555
4577,80.9258308820169
4578,80.91404557201018
4579,80.90196658271618
4580,80.88942216506568
4581,80.87638992083622
4582,80.86303582373522
4583,80.84947068258846
4584,80.83580530622159
4585,80.82215050346034
4586,80.80861708313039
4587,80.79531585405745
4588,80.78235762506725
4589,80.76961860448301
4590,80.75694020651405
4591,80.74438104881511
4592,80.73199974904101
4593,80.71985492484644
4594,80.7080051938862
4595,80.69650917381506
4596,80.68542548228778
4597,80.67218425115449
4598,80.65543807369967
4599,80.63707925972969
4600,80.61900011905091
4601,80.60309296146966
4602,80.59125009679227
4603,80.58536383482512
4604,80.58732648537452
4605,80.59903035824684
4606,80.62530254671161
4607,80.66644212104117
4608,80.71754935654607
4609,80.77372452853677
4610,80.83006791232387
4611,80.88167978321783
4612,80.92366041652922
4613,80.95111008756852
4614,80.9637633558454
4615,80.96617286561587
4616,80.96066601930998
4617,80.94957021935788
4618,80.93521286818961
4619,80.91992136823525
4620,80.90602312192492
4621,80.89584553168869
4622,80.88820593582078
4623,80.88038394979559
4624,80.87240039181349
4625,80.86427608007493
4626,80.8560318327803
4627,80.84768846812995
4628,80.83926680432434
4629,80.83078765956381
4630,80.82227185204879
4631,80.81359626444144
4632,80.80468352622681
4633,80.7956230758394
4634,80.7865043517138
4635,80.77741679228461
4636,80.76844983598639
4637,80.7596929212537
4638,80.75123548652113
4639,80.74311861518568
4640,80.73527473495604
4641,80.7276303007342
4642,80.72011176742221
4643,80.71264558992205
4644,80.7051582231358
4645,80.69757612196543
4646,80.68982574131299
4647,80.68193988852376
4648,80.67400365317451
4649,80.66602191351474
4650,80.65799954779382
4651,80.6499414342612
4652,80.64185245116626
4653,80.63373747675844
4654,80.62560138928714
4655,80.61744906700179
4656,80.6092076942043
4657,80.6008400253588
4658,80.5924042939579
4659,80.58395873349419
4660,80.5755615774603
4661,80.56727105934888
4662,80.55914541265253
4663,80.55124287086386
4664,80.54176709455322
4665,80.52989276349587
4666,80.51713463999178
4667,80.50500748634106
4668,80.49502606484371
4669,80.48870513779976
4670,80.48755946750921
4671,80.49310381627215
4672,80.50757106494815
4673,80.53057341588035
4674,80.55969461359403
4675,80.59251840261444
4676,80.62662852746683
4677,80.65960873267652
4678,80.68904276276872
4679,80.71251436226876
4680,80.72760727570186
4681,80.7339535656792
4682,80.73380021089632
4683,80.72865333000507
4684,80.72001904165731
4685,80.70940346450485
4686,80.69831271719957
4687,80.68825291839329
4688,80.68073018673789
4689,80.67487031737609
4690,80.66886425236734
4691,80.66281583073845
4692,80.6568288915163
4693,80.65100727372773
4694,80.6454548163996
4695,80.64027535855877
4696,80.63557273923205
4697,80.63146130726203
4698,80.62789461314348
4699,80.62473529838148
4700,80.62184600448117
4701,80.61908937294763
4702,80.61632804528598
4703,80.61342466300135
4704,80.61024186759883
4705,80.60664230058354
4706,80.60253927878328
4707,80.5980344782633
4708,80.59327307938493
4709,80.58840026250945
4710,80.58356120799817
4711,80.57890109621243
4712,80.57456510751348
4713,80.57069842226268
4714,80.56731995770146
4715,80.56429955420825
4716,80.5615587768498
4717,80.5590191906929
4718,80.55660236080429
4719,80.55422985225077
4720,80.55182323009907
4721,80.54930405941597
4722,80.54578365446409
4723,80.54088906616472
4724,80.53531546457265
4725,80.52975801974264
4726,80.52491190172948
4727,80.52147228058793
4728,80.52013432637278
4729,80.5215932091388
4730,80.52654409894075
4731,80.53684122763
4732,80.55262605214239
4733,80.57202458015932
4734,80.59316281936229
4735,80.61416677743269
4736,80.63316246205198
4737,80.64827588090161
4738,80.65763304166303
4739,80.66117162591951
4740,80.66064968036726
4741,80.65692376035716
4742,80.65085042124004
4743,80.64328621836677
4744,80.63508770708825
4745,80.6271114427553
4746,80.62021398071877
4747,80.61395435560891
4748,80.60733659761236
4749,80.60038475541468
4750,80.59312287770149
4751,80.58557501315826
4752,80.57776521047066
4753,80.56971751832417
4754,80.56145598540441
4755,80.55300466039694
4756,80.5445294362132
4757,80.53606771990209
4758,80.52745083135532
4759,80.51851009046456
4760,80.50907681712152
4761,80.49898233121789
4762,80.48805795264536
4763,80.47613500129563
4764,80.46308203975067
4765,80.44900338541066
4766,80.4340839903946
4767,80.41850880682152
4768,80.40246278681045
4769,80.38613088248037
4770,80.36969804595033
4771,80.35334922933932
4772,80.33710874928656
4773,80.3208254533807
4774,80.3044210901649
4775,80.28781740818229
4776,80.27093615597602
4777,80.25369908208924
4778,80.2360279350651
4779,80.21784446344672
4780,80.19907041577727
4781,80.1795873711745
4782,80.15941105293646
4783,80.13866442587656
4784,80.11747045480826
4785,80.09595210454505
4786,80.07423233990039
4787,80.05243412568775
4788,80.0306804267206
4789,80.00864112881203
4790,79.98605764510727
4791,79.9631602314178
4792,79.94017914355523
4793,79.91734463733113
4794,79.89488696855705
4795,79.87303639304452
4796,79.85202316660511
4797,79.83030366807347
4798,79.80688241933446
4799,79.78281189077494
4800,79.75914455278185
4801,79.73693287574201
4802,79.71722933004237
4803,79.7010863860698
4804,79.68955651421115
4805,79.68369218485337
4806,79.68619729611677
4807,79.6972552378045
4808,79.71413771782777
4809,79.73411644409768
4810,79.75446312452543
4811,79.77244946702216
4812,79.78534717949901
4813,79.79042796986717
4814,79.78742685497215
4815,79.77882864402281
4816,79.76602973347538
4817,79.75042651978606
4818,79.73341539941103
4819,79.71639276880651
4820,79.70075502442869
4821,79.68789856273378
4822,79.67726179933281
4823,79.66727130207828
4824,79.65780569578844
4825,79.64874360528164
4826,79.63996365537616
4827,79.63134447089034
4828,79.62276467664246
4829,79.61410289745083
4830,79.60523775813378
4831,79.59604752039621
4832,79.58660857242954
4833,79.57709672878184
4834,79.5676878040012
4835,79.55855761263567
4836,79.54988196923337
4837,79.54183668834234
4838,79.53459758451068
4839,79.52814254463377
4840,79.52229464924005
4841,79.51699750332718
4842,79.5121947118927
4843,79.50782987993432
4844,79.50384661244964
4845,79.50018851443626
4846,79.49679919089183
4847,79.49379639783385
4848,79.49128063185265
4849,79.48916960880523
4850,79.48738104454856
4851,79.48583265493953
4852,79.48444215583521
4853,79.48312726309247
4854,79.4818056925683
4855,79.4803951601197
4856,79.47872220167913
4857,79.4768013781662
4858,79.47483244291838
4859,79.47301514927322
4860,79.47154925056824
4861,79.47063450014099
4862,79.47047065132894
4863,79.47125745746965
4864,79.4712609185876
4865,79.46954765056233
4866,79.46751833051393
4867,79.46657363556238
4868,79.46811424282781
4869,79.47354082943029
4870,79.48425407248985
4871,79.50165464912655
4872,79.52787181556774
4873,79.56256533279726
4874,79.60343163507
4875,79.64816715664088
4876,79.69446833176474
4877,79.7400315946965
4878,79.78255337969108
4879,79.8197301210033
4880,79.8492582528881
4881,79.87077118920914
4882,79.88641645676222
4883,79.89766165920052
4884,79.90597440017717
4885,79.9128222833453
4886,79.91967291235808
4887,79.92799389086863
4888,79.93925282253014
4889,79.95328965167433
4890,79.96863806524993
4891,79.98480628083553
4892,80.00130251600967
4893,80.0176349883509
4894,80.03331191543782
4895,80.04784151484895
4896,80.06073200416289
4897,80.07178097458058
4898,80.08136078538679
4899,80.0898418062859
4900,80.09759440698224
4901,80.10498895718008
4902,80.1123958265838
4903,80.12018538489768
4904,80.12872800182609
4905,80.13839404707333
4906,80.14921076877906
4907,80.16081550582159
4908,80.17299376401319
4909,80.18553104916619
4910,80.19821286709288
4911,80.21082472360555
4912,80.22315212451656
4913,80.23498057563818
4914,80.24630772260528
4915,80.25733683658298
4916,80.26816186167899
4917,80.27887674200102
4918,80.28957542165672
4919,80.3003518447538
4920,80.31129995539996
4921,80.32251369770287
4922,80.33390302222723
4923,80.34533986577918
4924,80.3568611518285
4925,80.36850380384504
4926,80.38030474529863
4927,80.39230089965909
4928,80.40452919039627
4929,80.41702654097999
4930,80.4313540303397
4931,80.44825258696136
4932,80.46652890864965
4933,80.4849896932092
4934,80.50244163844462
4935,80.51769144216057
4936,80.52954580216169
4937,80.5368114162526
4938,80.53829498223796
4939,80.53118980647555
4940,80.51542188052402
4941,80.49389692998936
4942,80.46952068047749
4943,80.44519885759435
4944,80.42383718694587
4945,80.40834139413803
4946,80.40161720477676
4947,80.40409585367131
4948,80.41319479801996
4949,80.42729909701225
4950,80.44479380983775
4951,80.4640639956859
4952,80.48349471374628
4953,80.50147102320841
4954,80.51637798326182
4955,80.5287263574383
4956,80.54026238384095
4957,80.55122433351607
4958,80.5618504775101
4959,80.57237908686932
4960,80.58304843264017
4961,80.59409678586896
4962,80.60576241760208
4963,80.61828359888588
4964,80.63183670020821
4965,80.64626122761496
4966,80.66129015548958
4967,80.67665645821559
4968,80.69209311017642
4969,80.70733308575554
4970,80.72210935933643
4971,80.73615490530254
4972,80.74947951704449
4973,80.76234170184064
4974,80.77484750490613
4975,80.78710297145615
4976,80.7992141467058
4977,80.81128707587025
4978,80.82342780416464
4979,80.83574237680413
4980,80.8480922831123
4981,80.86031114012813
4982,80.87246318463998
4983,80.88461265343615
4984,80.89682378330491
4985,80.90916081103461
4986,80.92168797341355
4987,80.93446950723005
4988,80.94756964927238
4989,80.96125335932012
4990,80.97557368640466
4991,80.99027700119217
4992,81.00510967434879
4993,81.01981807654067
4994,81.03414857843394
4995,81.04784755069475
4996,81.06066136398925
4997,81.0754406065947
4998,81.09364851094786
4999,81.11295041395417
5000,81.13101165251906
5001,81.14549756354799
5002,81.15407348394639
5003,81.15440475061969
5004,81.14415670047336
5005,81.11957310438031
5006,81.081101739271
5007,81.03271395113705
5008,80.97838108597021
5009,80.9220744897621
5010,80.86776550850438
5011,80.81942548818873
5012,80.78102577480684
5013,80.75653771435036
5014,80.74661174299945
5015,80.74757933858797
5016,80.75693340958816
5017,80.77216686447227
5018,80.79077261171253
5019,80.81024355978117
5020,80.82807261715045
5021,80.84175269229259
5022,80.85263304496904
5023,80.86367963558016
5024,80.87481042355664
5025,80.88594336832915
5026,80.89699642932837
5027,80.90788756598492
5028,80.9185347377295
5029,80.92885590399275
5030,80.93874311389175
5031,80.9482228533735
5032,80.95741473711374
5033,80.96643837978813
5034,80.97541339607231
5035,80.98445940064201
5036,80.99369600817289
5037,81.00324283334062
5038,81.0132194908209
5039,81.02376680784884
5040,81.03482663558975
5041,81.04622012461469
5042,81.0577684254946
5043,81.06929268880052
5044,81.08061406510343
5045,81.09155370497439
5046,81.10193275898433
5047,81.1117665469707
5048,81.12123196736762
5049,81.13039253864113
5050,81.13931177925738
5051,81.14805320768241
5052,81.15668034238229
5053,81.16525670182315
5054,81.17384580447103
5055,81.18231990909652
5056,81.19055950651611
5057,81.19864046326465
5058,81.20663864587715
5059,81.21462992088844
5060,81.22269015483349
5061,81.23089521424718
5062,81.23932096566448
5063,81.24804327562026
5064,81.25958265296244
5065,81.27494500887977
5066,81.29193431341851
5067,81.3083545366249
5068,81.32200964854522
5069,81.33070361922569
5070,81.33224041871257
5071,81.3244240170521
5072,81.30336439754608
5073,81.26948586727981
5074,81.22706388197479
5075,81.18037389735251
5076,81.13369136913444
5077,81.09129175304211
5078,81.057450504797
5079,81.03644308012062
5080,81.02808997920715
5081,81.02822372707477
5082,81.03513781668089
5083,81.0471257409829
5084,81.06248099293823
5085,81.07949706550428
5086,81.09646745163847
5087,81.1116856442982
5088,81.1234451364409
5089,81.13291490244337
5090,81.14238206894868
5091,81.15181735731363
5092,81.16119148889499
5093,81.17047518504955
5094,81.17963916713408
5095,81.18865415650542
5096,81.1974908745203
5097,81.20604314150685
5098,81.2142933363135
5099,81.22234501807752
5100,81.23030174593623
5101,81.23826707902693
5102,81.24634457648686
5103,81.25463779745337
5104,81.26325030106369
5105,81.27210333943137
5106,81.28105853484618
5107,81.2901300017097
5108,81.29933185442364
5109,81.3086782073896
5110,81.31818317500924
5111,81.32786087168421
5112,81.33772541181612
5113,81.34779090980666
5114,81.35823435213555
5115,81.36912297253008
5116,81.38030625626321
5117,81.39163368860788
5118,81.40295475483708
5119,81.41411894022376
5120,81.42497573004083
5121,81.43537460956131
5122,81.44546212383675
5123,81.45544442524833
5124,81.46526041006346
5125,81.47484897454952
5126,81.48414901497385
5127,81.49309942760387
5128,81.5016391087069
5129,81.50970695455038
5130,81.51907973823303
5131,81.53071213571761
5132,81.5433098975675
5133,81.55557877434612
5134,81.5662245166168
5135,81.57395287494298
5136,81.57746959988806
5137,81.57548044201536
5138,81.56669115188835
5139,81.54740786885517
5140,81.51725297466362
5141,81.47990658347643
5142,81.43904880945644
5143,81.39835976676635
5144,81.36151956956897
5145,81.33220833202702
5146,81.31410616830333
5147,81.30767616299265
5148,81.30961191029012
5149,81.31793928875902
5150,81.33068417696265
5151,81.34587245346424
5152,81.3615299968271
5153,81.37568268561448
5154,81.38635639838968
5155,81.3943586295878
5156,81.40190798145507
5157,81.40914699427124
5158,81.41621820831615
5159,81.42326416386967
5160,81.43042740121159
5161,81.43785046062172
5162,81.44567588237992
5163,81.45404620676598
5164,81.4631045122481
5165,81.47277206961715
5166,81.48285870763704
5167,81.49317425507164
5168,81.50352854068485
5169,81.51373139324059
5170,81.5235926415027
5171,81.5329221142351
5172,81.54175035141338
5173,81.55027155706142
5174,81.5585410560157
5175,81.56661417311257
5176,81.57454623318843
5177,81.58239256107974
5178,81.59020848162287
5179,81.59804931965421
5180,81.60576466642446
5181,81.61323047230815
5182,81.62054160082747
5183,81.62779291550463
5184,81.63507927986178
5185,81.64249555742119
5186,81.65013661170502
5187,81.65809730623545
5188,81.66647250453471
5189,81.67536622946739
5190,81.68473170916852
5191,81.694437615066
5192,81.70435261858778
5193,81.71434539116173
5194,81.7242846042158
5195,81.73403892917788
5196,81.74347703747587
5197,81.75433206837914
5198,81.76747187069088
5199,81.78146718013963
5200,81.79488873245397
5201,81.80630726336248
5202,81.81429350859374
5203,81.81741820387633
5204,81.81425208493883
5205,81.80259049311893
5206,81.78274983319822
5207,81.75708243607106
5208,81.72794063263188
5209,81.697676753775
5210,81.66864313039484
5211,81.64319209338579
5212,81.62367597364222
5213,81.61244710205852
5214,81.60991652175983
5215,81.61392399694746
5216,81.62296494013013
5217,81.63553476381652
5218,81.65012888051531
5219,81.66524270273518
5220,81.67937164298486
5221,81.691011113773
5222,81.70106622854516
5223,81.71135783353164
5224,81.72175494041822
5225,81.73212656089073
5226,81.74234170663497
5227,81.75226938933677
5228,81.76177862068191
5229,81.7707384123562
5230,81.77898705079804
5231,81.78657294978719
5232,81.79368031202164
5233,81.80049334019932
5234,81.8071962370182
5235,81.81397320517621
5236,81.8210084473713
5237,81.82848616630143
5238,81.8365905646645
5239,81.84539304194183
5240,81.85474044772889
5241,81.86448015989482
5242,81.87445955630889
5243,81.88452601484029
5244,81.89452691335822
5245,81.9043096297319
5246,81.91372154183053
5247,81.92283275009824
5248,81.93181865199273
5249,81.94068457090373
5250,81.94943583022088
5251,81.95807775333388
5252,81.9666156636324
5253,81.9750548845061
5254,81.98340073934467
5255,81.9933380875298
5256,82.00570731893269
5257,82.01924705267723
5258,82.0326959078873
5259,82.04479250368682
5260,82.05427545919969
5261,82.0598833935498
5262,82.06035492586105
5263,82.05442867525734
5264,82.03902153792505
5265,82.01399523667746
5266,81.98250563057888
5267,81.94770857869366
5268,81.91275994008608
5269,81.88081557382047
5270,81.85503133896111
5271,81.83856309457235
5272,81.83170296120527
5273,81.83157055332049
5274,81.83656297084667
5275,81.84507731371248
5276,81.85551068184654
5277,81.86626017517752
5278,81.87572289363403
5279,81.88229593714475
5280,81.88693072216617
5281,81.89157834240385
5282,81.8961354136599
5283,81.90049855173653
5284,81.90456437243586
5285,81.90822949156004
5286,81.91139052491123
5287,81.9139440882916
5288,81.91578679750329
5289,81.91705486368146
5290,81.9178969672184
5291,81.91822842780212
5292,81.91796456512056
5293,81.91702069886166
5294,81.91531214871335
5295,81.9127542343636
5296,81.90926227550038
5297,81.90506020572397
5298,81.90032464449364
5299,81.89489994028565
5300,81.88863044157638
5301,81.88136049684212
5302,81.87293445455921
5303,81.863196663204
5304,81.85199147125273
5305,81.83972416129556
5306,81.82677361022955
5307,81.81294455799136
5308,81.79804174451772
5309,81.78186990974534
5310,81.76423379361093
5311,81.74493813605119
5312,81.72378767700283
5313,81.70058715640258
5314,81.6749459030336
5315,81.64684177519936
5316,81.61663230711692
5317,81.58467503300335
5318,81.55132748707572
5319,81.5169472035511
5320,81.48189171664657
5321,81.44651856057918
5322,81.4102715929634
5323,81.37257195828442
5324,81.33374312106537
5325,81.29410854582942
5326,81.25399169709969
5327,81.21371603939936
5328,81.17360503725156
5329,81.13398215517944
5330,81.09435941480241
5331,81.05419773410233
5332,81.01374392214612
5333,80.97324478800068
5334,80.93294714073289
5335,80.89309778940965
5336,80.85394354309786
5337,80.81573121086441
5338,80.77870760177622
5339,80.74378684785209
5340,80.71112698325659
5341,80.67984067027528
5342,80.64904057119371
5343,80.6178393482974
5344,80.5853496638719
5345,80.55068418020278
5346,80.51295555957554
